TITLE	
DATA TYPE	FLUORESCENCE SPECTRUM
ORIGIN	JASCO
OWNER	
DATE	25/03/25
TIME	14:34:28
SPECTROMETER/DATA SYSTEM	
LOCALE	1041
RESOLUTION	
DELTAX	0.5
XUNITS	NANOMETERS
YUNITS	INTENSITY
FIRSTX	  450.0000
LASTX	  700.0000
NPOINTS	     501
FIRSTY	   158.54869
MAXY	   295.18283
MINY	     0.45403
XYDATA
450.0000	158.549
450.5000	167.76
451.0000	176.572
451.5000	185.366
452.0000	194.121
452.5000	203.163
453.0000	212.345
453.5000	221.448
454.0000	230.711
454.5000	239.954
455.0000	249.235
455.5000	257.902
456.0000	265.655
456.5000	272.769
457.0000	279.068
457.5000	284.362
458.0000	288.547
458.5000	291.686
459.0000	293.786
459.5000	294.872
460.0000	295.183
460.5000	294.323
461.0000	292.584
461.5000	290.211
462.0000	287.23
462.5000	283.329
463.0000	278.623
463.5000	273.645
464.0000	268.206
464.5000	262.231
465.0000	255.85
465.5000	249.34
466.0000	242.449
466.5000	235.472
467.0000	228.65
467.5000	221.491
468.0000	214.535
468.5000	207.672
469.0000	200.773
469.5000	194.329
470.0000	188.23
470.5000	182.421
471.0000	176.843
471.5000	171.408
472.0000	166.49
472.5000	162.002
473.0000	157.999
473.5000	154.552
474.0000	151.475
474.5000	148.91
475.0000	146.923
475.5000	145.372
476.0000	144.384
476.5000	143.948
477.0000	144.118
477.5000	144.67
478.0000	145.712
478.5000	147.281
479.0000	149.117
479.5000	151.511
480.0000	154.019
480.5000	156.528
481.0000	159.318
481.5000	162.263
482.0000	165.183
482.5000	168.077
483.0000	170.592
483.5000	173.109
484.0000	175.316
484.5000	177.188
485.0000	178.809
485.5000	179.952
486.0000	180.821
486.5000	181.43
487.0000	181.636
487.5000	181.391
488.0000	180.811
488.5000	179.647
489.0000	178.145
489.5000	176.247
490.0000	173.829
490.5000	171.035
491.0000	167.879
491.5000	164.285
492.0000	160.429
492.5000	156.114
493.0000	151.623
493.5000	147.034
494.0000	142.051
494.5000	136.994
495.0000	131.997
495.5000	126.78
496.0000	121.862
496.5000	116.886
497.0000	112.059
497.5000	107.337
498.0000	102.653
498.5000	98.1223
499.0000	93.874
499.5000	89.6986
500.0000	85.7226
500.5000	81.8901
501.0000	78.2035
501.5000	74.7872
502.0000	71.5286
502.5000	68.4438
503.0000	65.5109
503.5000	62.8109
504.0000	60.2678
504.5000	57.8596
505.0000	55.6214
505.5000	53.5642
506.0000	51.6246
506.5000	49.8501
507.0000	48.2718
507.5000	46.7768
508.0000	45.4396
508.5000	44.1695
509.0000	43.0592
509.5000	42.08
510.0000	41.14
510.5000	40.1858
511.0000	39.4209
511.5000	38.7942
512.0000	38.2066
512.5000	37.6334
513.0000	37.1244
513.5000	36.7536
514.0000	36.4205
514.5000	36.0844
515.0000	35.7866
515.5000	35.5606
516.0000	35.3612
516.5000	35.177
517.0000	34.9832
517.5000	34.8424
518.0000	34.7232
518.5000	34.5549
519.0000	34.3705
519.5000	34.3076
520.0000	34.2029
520.5000	34.0731
521.0000	33.9497
521.5000	33.8015
522.0000	33.7326
522.5000	33.5953
523.0000	33.3161
523.5000	33.188
524.0000	33.0169
524.5000	32.7847
525.0000	32.6127
525.5000	32.3751
526.0000	32.16
526.5000	31.9166
527.0000	31.6662
527.5000	31.3211
528.0000	31.0718
528.5000	30.7296
529.0000	30.4017
529.5000	30.0519
530.0000	29.7238
530.5000	29.3683
531.0000	28.9765
531.5000	28.6293
532.0000	28.2312
532.5000	27.7937
533.0000	27.4244
533.5000	27.0537
534.0000	26.611
534.5000	26.2179
535.0000	25.7994
535.5000	25.3757
536.0000	24.9737
536.5000	24.516
537.0000	24.0879
537.5000	23.6992
538.0000	23.3342
538.5000	22.8967
539.0000	22.4812
539.5000	22.0849
540.0000	21.726
540.5000	21.1412
541.0000	20.8102
541.5000	20.4364
542.0000	20.1106
542.5000	19.7449
543.0000	19.4202
543.5000	19.143
544.0000	18.87
544.5000	18.532
545.0000	18.2634
545.5000	18.0123
546.0000	17.7997
546.5000	17.5281
547.0000	17.2899
547.5000	17.0707
548.0000	16.849
548.5000	16.6539
549.0000	16.4419
549.5000	16.2653
550.0000	16.1423
550.5000	16.0008
551.0000	15.8182
551.5000	15.6794
552.0000	15.5368
552.5000	15.4149
553.0000	15.3043
553.5000	15.2086
554.0000	15.0917
554.5000	15.0078
555.0000	14.9756
555.5000	14.9171
556.0000	14.8207
556.5000	14.7196
557.0000	14.6663
557.5000	14.6217
558.0000	14.5848
558.5000	14.5554
559.0000	14.499
559.5000	14.4475
560.0000	14.389
560.5000	14.3458
561.0000	14.331
561.5000	14.3094
562.0000	14.2724
562.5000	14.221
563.0000	14.1834
563.5000	14.1302
564.0000	14.0849
564.5000	14.07
565.0000	13.9939
565.5000	13.9327
566.0000	13.8676
566.5000	13.8324
567.0000	13.7647
567.5000	13.7251
568.0000	13.6303
568.5000	13.5692
569.0000	13.5071
569.5000	13.4227
570.0000	13.3229
570.5000	13.2146
571.0000	13.1319
571.5000	13.0418
572.0000	12.9386
572.5000	12.8598
573.0000	12.7933
573.5000	12.7129
574.0000	12.6008
574.5000	12.458
575.0000	12.3413
575.5000	12.2252
576.0000	12.0956
576.5000	11.9894
577.0000	11.8943
577.5000	11.7508
578.0000	11.6214
578.5000	11.4909
579.0000	11.3541
579.5000	11.2405
580.0000	11.1091
580.5000	11.0006
581.0000	10.8512
581.5000	10.7298
582.0000	10.6352
582.5000	10.4785
583.0000	10.3511
583.5000	10.2379
584.0000	10.1075
584.5000	9.96372
585.0000	9.86202
585.5000	9.70223
586.0000	9.58737
586.5000	9.43086
587.0000	9.32552
587.5000	9.24045
588.0000	9.13562
588.5000	8.99811
589.0000	8.83989
589.5000	8.73649
590.0000	8.63311
590.5000	8.52316
591.0000	8.41682
591.5000	8.28772
592.0000	8.18876
592.5000	8.10754
593.0000	8.00462
593.5000	7.8959
594.0000	7.77045
594.5000	7.66332
595.0000	7.59623
595.5000	7.48657
596.0000	7.39836
596.5000	7.28374
597.0000	7.19018
597.5000	7.13865
598.0000	7.05615
598.5000	6.95065
599.0000	6.853
599.5000	6.76949
600.0000	6.68029
600.5000	6.60357
601.0000	6.53548
601.5000	6.49777
602.0000	6.38487
602.5000	6.29951
603.0000	6.23456
603.5000	6.14199
604.0000	6.06574
604.5000	5.99856
605.0000	5.93044
605.5000	5.85632
606.0000	5.82094
606.5000	5.72906
607.0000	5.66155
607.5000	5.62196
608.0000	5.54396
608.5000	5.46729
609.0000	5.38635
609.5000	5.32067
610.0000	5.26735
610.5000	5.23741
611.0000	5.14372
611.5000	5.06602
612.0000	5.01102
612.5000	4.95493
613.0000	4.89995
613.5000	4.84293
614.0000	4.77562
614.5000	4.73663
615.0000	4.68491
615.5000	4.59437
616.0000	4.5437
616.5000	4.49587
617.0000	4.4227
617.5000	4.36947
618.0000	4.32964
618.5000	4.2714
619.0000	4.19247
619.5000	4.13287
620.0000	4.08917
620.5000	4.05044
621.0000	3.98877
621.5000	3.92689
622.0000	3.88527
622.5000	3.84347
623.0000	3.79725
623.5000	3.7171
624.0000	3.67449
624.5000	3.62574
625.0000	3.5928
625.5000	3.52001
626.0000	3.47049
626.5000	3.42718
627.0000	3.38702
627.5000	3.34138
628.0000	3.28341
628.5000	3.22689
629.0000	3.17849
629.5000	3.14021
630.0000	3.09799
630.5000	3.04988
631.0000	3.01291
631.5000	2.96149
632.0000	2.92412
632.5000	2.85369
633.0000	2.82882
633.5000	2.79632
634.0000	2.73223
634.5000	2.71667
635.0000	2.68067
635.5000	2.62525
636.0000	2.60531
636.5000	2.55725
637.0000	2.50433
637.5000	2.48183
638.0000	2.46326
638.5000	2.43934
639.0000	2.38045
639.5000	2.34596
640.0000	2.29829
640.5000	2.22863
641.0000	2.20051
641.5000	2.19681
642.0000	2.1611
642.5000	2.13417
643.0000	2.1089
643.5000	2.07317
644.0000	2.04366
644.5000	2.02231
645.0000	1.97198
645.5000	1.93961
646.0000	1.92538
646.5000	1.89212
647.0000	1.85958
647.5000	1.82398
648.0000	1.80128
648.5000	1.76122
649.0000	1.74016
649.5000	1.71402
650.0000	1.69469
650.5000	1.66988
651.0000	1.6275
651.5000	1.62604
652.0000	1.61131
652.5000	1.58728
653.0000	1.55305
653.5000	1.53316
654.0000	1.51829
654.5000	1.48585
655.0000	1.47531
655.5000	1.43051
656.0000	1.43043
656.5000	1.40244
657.0000	1.36781
657.5000	1.37703
658.0000	1.35557
658.5000	1.32483
659.0000	1.32455
659.5000	1.28774
660.0000	1.26529
660.5000	1.25471
661.0000	1.24671
661.5000	1.23123
662.0000	1.22497
662.5000	1.20354
663.0000	1.18187
663.5000	1.17574
664.0000	1.14495
664.5000	1.13091
665.0000	1.10868
665.5000	1.08647
666.0000	1.07614
666.5000	1.06091
667.0000	1.05343
667.5000	1.02226
668.0000	1.01162
668.5000	1.00087
669.0000	0.973188
669.5000	0.973087
670.0000	0.981159
670.5000	0.977895
671.0000	0.938461
671.5000	0.916493
672.0000	0.90397
672.5000	0.907718
673.0000	0.897088
673.5000	0.875474
674.0000	0.869369
674.5000	0.850253
675.0000	0.819807
675.5000	0.82051
676.0000	0.808207
676.5000	0.805229
677.0000	0.793678
677.5000	0.772395
678.0000	0.763428
678.5000	0.769915
679.0000	0.754037
679.5000	0.73723
680.0000	0.733439
680.5000	0.706788
681.0000	0.733914
681.5000	0.727497
682.0000	0.713639
682.5000	0.68775
683.0000	0.699996
683.5000	0.68828
684.0000	0.666424
684.5000	0.657834
685.0000	0.654225
685.5000	0.663274
686.0000	0.641942
686.5000	0.618098
687.0000	0.610261
687.5000	0.602429
688.0000	0.604495
688.5000	0.582736
689.0000	0.59807
689.5000	0.578563
690.0000	0.585667
690.5000	0.559428
691.0000	0.560058
691.5000	0.577915
692.0000	0.55971
692.5000	0.536681
693.0000	0.527532
693.5000	0.514868
694.0000	0.525107
694.5000	0.516503
695.0000	0.507851
695.5000	0.498388
696.0000	0.497982
696.5000	0.478856
697.0000	0.480062
697.5000	0.500328
698.0000	0.483144
698.5000	0.47256
699.0000	0.475944
699.5000	0.454031
700.0000	0.464222

##### Extended Information
[コメント情報]
試料名
コメント
測定者
所属
会社	関西大学

[データ情報]
作成日時	2025/03/25 14:34

データタイプ	等間隔データ
横軸	Wavelength [nm]
縦軸	Int.
スタート	450 nm
エンド	700 nm
データ間隔	0.5 nm
データ数	501     

[測定情報]
機種名	FP-8300
シリアル番号	C037361450
  Ex側フォルダ	なし
  Em側フォルダ	なし

付属品名	SCE-846
付属品シリアルNo.	C037361450

測定日時	2025/03/25 14:34

測定モード	蛍光
励起側バンド幅	5 nm
蛍光側バンド幅	5 nm
レスポンス	0.1 sec
感度	Very low
測定範囲	450 - 700 nm
データ取込間隔	0.5 nm
励起波長	450.0 nm
走査速度	500 nm/min
オートゲイン	Off
自動シャッタ制御	測定時のみ開く
光源	キセノンランプ
フィルタ	交換時にスキャンを停止する
ブランク補正	Off

