TITLE	
DATA TYPE	FLUORESCENCE SPECTRUM
ORIGIN	JASCO
OWNER	
DATE	25/03/31
TIME	11:35:30
SPECTROMETER/DATA SYSTEM	
LOCALE	1041
RESOLUTION	
DELTAX	0.5
XUNITS	NANOMETERS
YUNITS	INTENSITY
FIRSTX	  447.0000
LASTX	  700.0000
NPOINTS	     507
FIRSTY	   510.16248
MAXY	   972.37805
MINY	     1.97237
XYDATA
447.0000	510.162
447.5000	516.4
448.0000	520.92
448.5000	527.868
449.0000	539.483
449.5000	555.526
450.0000	578.941
450.5000	607.467
451.0000	640.895
451.5000	679.197
452.0000	718.962
452.5000	758.414
453.0000	794.807
453.5000	829.719
454.0000	862.187
454.5000	892.079
455.0000	916.573
455.5000	936.686
456.0000	951.452
456.5000	962.669
457.0000	968.792
457.5000	972.378
458.0000	971.65
458.5000	968.533
459.0000	962.616
459.5000	953.057
460.0000	942.042
460.5000	927.617
461.0000	912.324
461.5000	895.814
462.0000	877.059
462.5000	857.32
463.0000	837.49
463.5000	817.211
464.0000	795.579
464.5000	772.498
465.0000	750.707
465.5000	727.996
466.0000	706.789
466.5000	684.369
467.0000	661.538
467.5000	640.685
468.0000	620.56
468.5000	600.819
469.0000	581.035
469.5000	564.101
470.0000	547.862
470.5000	531.836
471.0000	516.213
471.5000	502.545
472.0000	491.23
472.5000	481.116
473.0000	471.964
473.5000	463.987
474.0000	457.515
474.5000	453.329
475.0000	451.315
475.5000	449.497
476.0000	450.109
476.5000	453.128
477.0000	456.574
477.5000	461.272
478.0000	468.027
478.5000	475.674
479.0000	485.135
479.5000	495.188
480.0000	505.448
480.5000	516.207
481.0000	527.621
481.5000	538.908
482.0000	550.592
482.5000	560.701
483.0000	570.913
483.5000	580.532
484.0000	587.753
484.5000	596.119
485.0000	604.13
485.5000	610.914
486.0000	615.092
486.5000	617.87
487.0000	620.286
487.5000	621.974
488.0000	621.873
488.5000	620.64
489.0000	618.058
489.5000	613.138
490.0000	606.401
490.5000	598.894
491.0000	590.646
491.5000	581.127
492.0000	568.962
492.5000	555.938
493.0000	541.379
493.5000	527.114
494.0000	511.937
494.5000	495.94
495.0000	479.253
495.5000	463.887
496.0000	447.349
496.5000	430.917
497.0000	414.938
497.5000	398.795
498.0000	383.192
498.5000	367.823
499.0000	353.536
499.5000	339.639
500.0000	326.23
500.5000	313.108
501.0000	300.93
501.5000	289.06
502.0000	278.47
502.5000	268.234
503.0000	258.299
503.5000	249.197
504.0000	240.517
504.5000	232.597
505.0000	225.799
505.5000	219.036
506.0000	212.669
506.5000	207.736
507.0000	202.721
507.5000	197.443
508.0000	193.428
508.5000	189.84
509.0000	186.636
509.5000	183.947
510.0000	181.199
510.5000	178.765
511.0000	176.983
511.5000	175.773
512.0000	174.546
512.5000	173.076
513.0000	172.073
513.5000	171.938
514.0000	171.453
514.5000	171.12
515.0000	171.035
515.5000	171.342
516.0000	171.357
516.5000	171.507
517.0000	172.003
517.5000	171.813
518.0000	171.816
518.5000	172.372
519.0000	172.692
519.5000	172.848
520.0000	173.434
520.5000	174.08
521.0000	174.804
521.5000	174.742
522.0000	174.536
522.5000	174.179
523.0000	174.844
523.5000	174.821
524.0000	174.737
524.5000	174.448
525.0000	174.088
525.5000	174.09
526.0000	173.656
526.5000	172.918
527.0000	172.573
527.5000	171.472
528.0000	170.455
528.5000	169.867
529.0000	169.079
529.5000	167.712
530.0000	166.309
530.5000	164.919
531.0000	163.479
531.5000	162.198
532.0000	160.538
532.5000	159.209
533.0000	157.665
533.5000	155.541
534.0000	153.725
534.5000	151.742
535.0000	149.877
535.5000	148.402
536.0000	146.011
536.5000	143.957
537.0000	142.097
537.5000	140.126
538.0000	138.007
538.5000	136.054
539.0000	134.115
539.5000	132.075
540.0000	130.23
540.5000	126.353
541.0000	124.35
541.5000	122.99
542.0000	121.257
542.5000	119.504
543.0000	117.667
543.5000	115.599
544.0000	113.926
544.5000	112.51
545.0000	110.91
545.5000	109.402
546.0000	107.746
546.5000	106.615
547.0000	105.501
547.5000	104.077
548.0000	102.842
548.5000	101.571
549.0000	100.674
549.5000	99.6513
550.0000	98.1141
550.5000	96.8614
551.0000	95.782
551.5000	95.1927
552.0000	94.2894
552.5000	93.5113
553.0000	92.4031
553.5000	91.3944
554.0000	90.9108
554.5000	90.6345
555.0000	89.2221
555.5000	88.6245
556.0000	87.9601
556.5000	87.4193
557.0000	86.7479
557.5000	85.8741
558.0000	85.4381
558.5000	84.5801
559.0000	84.3841
559.5000	83.4031
560.0000	82.782
560.5000	82.1192
561.0000	81.5571
561.5000	81.0408
562.0000	80.2864
562.5000	79.6956
563.0000	78.933
563.5000	78.5821
564.0000	77.7735
564.5000	77.3731
565.0000	76.5756
565.5000	75.891
566.0000	75.3306
566.5000	74.7624
567.0000	73.9963
567.5000	73.163
568.0000	72.464
568.5000	71.74
569.0000	71.206
569.5000	70.4841
570.0000	69.4285
570.5000	68.8293
571.0000	68.1066
571.5000	67.3307
572.0000	66.6866
572.5000	65.8134
573.0000	65.318
573.5000	64.6368
574.0000	63.7951
574.5000	63.0273
575.0000	62.2703
575.5000	61.3888
576.0000	60.4104
576.5000	59.7152
577.0000	59.0607
577.5000	58.1413
578.0000	57.5509
578.5000	56.8513
579.0000	56.1029
579.5000	55.3109
580.0000	54.3974
580.5000	53.6267
581.0000	52.8282
581.5000	52.4464
582.0000	52.0783
582.5000	51.233
583.0000	50.2213
583.5000	49.6469
584.0000	49.0943
584.5000	48.2677
585.0000	47.7817
585.5000	47.0853
586.0000	46.4858
586.5000	45.6626
587.0000	45.147
587.5000	44.5189
588.0000	43.8647
588.5000	43.2426
589.0000	42.7864
589.5000	42.1271
590.0000	41.6925
590.5000	41.0846
591.0000	40.4594
591.5000	39.8368
592.0000	39.139
592.5000	38.8213
593.0000	38.4409
593.5000	37.8983
594.0000	37.2609
594.5000	36.6848
595.0000	36.3625
595.5000	35.7982
596.0000	35.2842
596.5000	34.8455
597.0000	34.4309
597.5000	34.0505
598.0000	33.7418
598.5000	33.4033
599.0000	32.9367
599.5000	32.4801
600.0000	32.0545
600.5000	31.7291
601.0000	31.4736
601.5000	30.8557
602.0000	30.4161
602.5000	30.1169
603.0000	29.6285
603.5000	29.0802
604.0000	28.8955
604.5000	28.5569
605.0000	28.0269
605.5000	27.8338
606.0000	27.6134
606.5000	27.1363
607.0000	26.919
607.5000	26.5698
608.0000	26.0798
608.5000	25.8184
609.0000	25.5049
609.5000	25.0136
610.0000	24.7943
610.5000	24.4758
611.0000	24.1748
611.5000	23.9048
612.0000	23.6948
612.5000	23.2992
613.0000	23.096
613.5000	22.7409
614.0000	22.5113
614.5000	22.0752
615.0000	22.0017
615.5000	21.645
616.0000	21.2884
616.5000	21.1107
617.0000	20.8445
617.5000	20.5367
618.0000	20.1513
618.5000	19.7877
619.0000	19.548
619.5000	19.3703
620.0000	19.0925
620.5000	18.7116
621.0000	18.5964
621.5000	18.3678
622.0000	18.1219
622.5000	17.8935
623.0000	17.825
623.5000	17.4412
624.0000	17.0929
624.5000	16.9135
625.0000	16.5785
625.5000	16.3517
626.0000	16.1057
626.5000	15.8335
627.0000	15.6607
627.5000	15.5145
628.0000	15.3635
628.5000	15.1514
629.0000	14.8161
629.5000	14.6061
630.0000	14.3879
630.5000	14.1921
631.0000	14.0938
631.5000	13.9311
632.0000	13.7361
632.5000	13.5014
633.0000	13.2878
633.5000	13.0581
634.0000	12.8615
634.5000	12.6968
635.0000	12.5898
635.5000	12.3671
636.0000	12.172
636.5000	11.9957
637.0000	11.8858
637.5000	11.7519
638.0000	11.5379
638.5000	11.4352
639.0000	11.1741
639.5000	11.0667
640.0000	10.8635
640.5000	10.7096
641.0000	10.5577
641.5000	10.3919
642.0000	10.2951
642.5000	10.1379
643.0000	9.96682
643.5000	9.81302
644.0000	9.68892
644.5000	9.6097
645.0000	9.4348
645.5000	9.31436
646.0000	9.10921
646.5000	9.00139
647.0000	8.85725
647.5000	8.67416
648.0000	8.63602
648.5000	8.48913
649.0000	8.38164
649.5000	8.1885
650.0000	8.1013
650.5000	8.01647
651.0000	7.8533
651.5000	7.78023
652.0000	7.72596
652.5000	7.62534
653.0000	7.44117
653.5000	7.33319
654.0000	7.25364
654.5000	7.17097
655.0000	7.07576
655.5000	6.91008
656.0000	6.82431
656.5000	6.62139
657.0000	6.48678
657.5000	6.40289
658.0000	6.45258
658.5000	6.40162
659.0000	6.22978
659.5000	6.16516
660.0000	6.14813
660.5000	5.95432
661.0000	5.87625
661.5000	5.83243
662.0000	5.68223
662.5000	5.61067
663.0000	5.58821
663.5000	5.51457
664.0000	5.4156
664.5000	5.35048
665.0000	5.26299
665.5000	5.19485
666.0000	5.0721
666.5000	5.0477
667.0000	5.00664
667.5000	4.86728
668.0000	4.85521
668.5000	4.8323
669.0000	4.72184
669.5000	4.56918
670.0000	4.54084
670.5000	4.50949
671.0000	4.3804
671.5000	4.32733
672.0000	4.25647
672.5000	4.25655
673.0000	4.1469
673.5000	4.1245
674.0000	4.00792
674.5000	3.97375
675.0000	3.90059
675.5000	3.85441
676.0000	3.78695
676.5000	3.74642
677.0000	3.71298
677.5000	3.69433
678.0000	3.64452
678.5000	3.6011
679.0000	3.49458
679.5000	3.46496
680.0000	3.47586
680.5000	3.41783
681.0000	3.30714
681.5000	3.22163
682.0000	3.15378
682.5000	3.149
683.0000	3.08991
683.5000	3.05993
684.0000	3.06369
684.5000	3.0139
685.0000	3.01098
685.5000	2.94052
686.0000	2.87282
686.5000	2.83131
687.0000	2.79114
687.5000	2.70977
688.0000	2.74192
688.5000	2.68081
689.0000	2.64704
689.5000	2.64136
690.0000	2.64473
690.5000	2.56533
691.0000	2.54377
691.5000	2.50264
692.0000	2.43511
692.5000	2.41601
693.0000	2.39144
693.5000	2.32316
694.0000	2.33591
694.5000	2.27907
695.0000	2.25233
695.5000	2.23827
696.0000	2.19873
696.5000	2.16225
697.0000	2.10806
697.5000	2.10646
698.0000	2.07958
698.5000	2.03859
699.0000	2.02822
699.5000	2.01483
700.0000	1.97237

##### Extended Information
[コメント情報]
試料名
コメント
測定者
所属
会社	関西大学

[データ情報]
作成日時	2025/03/31 11:35

データタイプ	等間隔データ
横軸	Wavelength [nm]
縦軸	Int.
スタート	447 nm
エンド	700 nm
データ間隔	0.5 nm
データ数	507     

[測定情報]
機種名	FP-8300
シリアル番号	C037361450
  Ex側フォルダ	なし
  Em側フォルダ	なし

付属品名	SCE-846
付属品シリアルNo.	C037361450

測定日時	2025/03/31 11:35

測定モード	蛍光
励起側バンド幅	5 nm
蛍光側バンド幅	5 nm
レスポンス	0.1 sec
感度	Low
測定範囲	447 - 700 nm
データ取込間隔	0.5 nm
励起波長	447.0 nm
走査速度	500 nm/min
オートゲイン	Off
自動シャッタ制御	測定時のみ開く
光源	キセノンランプ
フィルタ	交換時にスキャンを停止する
ブランク補正	Off

