TITLE	
DATA TYPE	FLUORESCENCE SPECTRUM
ORIGIN	JASCO
OWNER	
DATE	25/05/14
TIME	21:33:00
SPECTROMETER/DATA SYSTEM	
LOCALE	1041
RESOLUTION	
DELTAX	0.5
XUNITS	NANOMETERS
YUNITS	INTENSITY
FIRSTX	  449.0000
LASTX	  700.0000
NPOINTS	     503
FIRSTY	   291.81583
MAXY	   459.38583
MINY	     0.76427
XYDATA
449.0000	291.816
449.5000	304.277
450.0000	316.129
450.5000	328.199
451.0000	339.395
451.5000	350.753
452.0000	363.246
452.5000	377.059
453.0000	390.744
453.5000	403.087
454.0000	415.506
454.5000	426.98
455.0000	437.281
455.5000	444.756
456.0000	450.811
456.5000	455.367
457.0000	458.446
457.5000	459.386
458.0000	459.35
458.5000	457.422
459.0000	454.163
459.5000	450.491
460.0000	445.042
460.5000	438.437
461.0000	431.38
461.5000	423.102
462.0000	414.683
462.5000	406.098
463.0000	396.595
463.5000	386.657
464.0000	376.487
464.5000	366.781
465.0000	356.669
465.5000	345.72
466.0000	335.161
466.5000	324.562
467.0000	314.078
467.5000	305.092
468.0000	295.85
468.5000	286.155
469.0000	278.064
469.5000	269.923
470.0000	261.598
470.5000	254.564
471.0000	248.241
471.5000	241.844
472.0000	236.394
472.5000	231.888
473.0000	228.744
473.5000	225.589
474.0000	223.033
474.5000	221.365
475.0000	220.745
475.5000	220.563
476.0000	221.065
476.5000	222.205
477.0000	224.502
477.5000	227.437
478.0000	231.166
478.5000	234.971
479.0000	239.787
479.5000	245.236
480.0000	250.545
480.5000	255.385
481.0000	260.563
481.5000	266.129
482.0000	271.82
482.5000	277.255
483.0000	281.708
483.5000	285.895
484.0000	289.639
484.5000	292.949
485.0000	296.004
485.5000	298.517
486.0000	300.52
486.5000	302.003
487.0000	302.955
487.5000	303.117
488.0000	302.777
488.5000	301.796
489.0000	300.133
489.5000	297.327
490.0000	293.809
490.5000	289.652
491.0000	285.593
491.5000	280.76
492.0000	274.941
492.5000	268.065
493.0000	261.291
493.5000	254.116
494.0000	246.706
494.5000	238.734
495.0000	231.144
495.5000	222.781
496.0000	214.998
496.5000	206.991
497.0000	199.531
497.5000	191.963
498.0000	184.533
498.5000	177.156
499.0000	169.812
499.5000	163.455
500.0000	157.331
500.5000	151.155
501.0000	144.965
501.5000	139.25
502.0000	134.417
502.5000	129.783
503.0000	124.956
503.5000	120.102
504.0000	116.333
504.5000	112.73
505.0000	109.548
505.5000	106.459
506.0000	103.571
506.5000	100.746
507.0000	98.4423
507.5000	96.4127
508.0000	94.5597
508.5000	92.7031
509.0000	91.2832
509.5000	89.8361
510.0000	88.6325
510.5000	87.5704
511.0000	86.7037
511.5000	85.9607
512.0000	85.4713
512.5000	84.9674
513.0000	84.787
513.5000	84.6658
514.0000	84.1785
514.5000	84.1021
515.0000	84.1244
515.5000	84.4581
516.0000	84.6426
516.5000	84.6187
517.0000	84.5303
517.5000	84.6531
518.0000	84.8219
518.5000	84.883
519.0000	85.2545
519.5000	85.4161
520.0000	85.7164
520.5000	85.7854
521.0000	85.9882
521.5000	86.0084
522.0000	86.0619
522.5000	85.997
523.0000	86.1334
523.5000	86.0805
524.0000	86.1141
524.5000	86.0992
525.0000	86.0526
525.5000	85.8627
526.0000	85.7351
526.5000	85.4617
527.0000	85.0634
527.5000	84.8764
528.0000	84.4748
528.5000	84.2415
529.0000	83.6848
529.5000	82.9036
530.0000	82.5346
530.5000	81.7408
531.0000	81.0981
531.5000	80.729
532.0000	79.9546
532.5000	79.1896
533.0000	78.3466
533.5000	77.7399
534.0000	76.931
534.5000	75.8679
535.0000	74.8926
535.5000	73.906
536.0000	73.1721
536.5000	72.2995
537.0000	71.2905
537.5000	70.2238
538.0000	69.004
538.5000	68.2254
539.0000	67.2013
539.5000	66.2912
540.0000	65.3696
540.5000	64.4218
541.0000	63.3991
541.5000	62.3026
542.0000	61.5653
542.5000	60.6334
543.0000	59.9017
543.5000	59.3688
544.0000	58.3187
544.5000	57.6906
545.0000	56.5284
545.5000	55.7031
546.0000	55.1368
546.5000	54.8315
547.0000	54.102
547.5000	53.5279
548.0000	52.7085
548.5000	51.9232
549.0000	51.4232
549.5000	50.9482
550.0000	50.3303
550.5000	49.8485
551.0000	49.2274
551.5000	48.7467
552.0000	48.3008
552.5000	47.73
553.0000	47.3223
553.5000	46.9816
554.0000	46.5756
554.5000	46.3122
555.0000	45.8
555.5000	45.3369
556.0000	44.9107
556.5000	44.6878
557.0000	44.3993
557.5000	44.0094
558.0000	43.7885
558.5000	43.4137
559.0000	43.0822
559.5000	42.8804
560.0000	42.4174
560.5000	41.9314
561.0000	41.7256
561.5000	41.6425
562.0000	41.36
562.5000	40.8094
563.0000	40.4274
563.5000	40.1301
564.0000	39.9104
564.5000	39.5473
565.0000	39.2435
565.5000	38.805
566.0000	38.3826
566.5000	38.1165
567.0000	37.8301
567.5000	37.599
568.0000	37.0755
568.5000	36.7357
569.0000	36.3887
569.5000	35.9517
570.0000	35.5167
570.5000	35.1439
571.0000	34.6272
571.5000	34.2101
572.0000	34.0873
572.5000	33.5586
573.0000	33.2615
573.5000	32.814
574.0000	32.5779
574.5000	32.1814
575.0000	31.7836
575.5000	31.4253
576.0000	30.9089
576.5000	30.2026
577.0000	30.0071
577.5000	29.6703
578.0000	29.2933
578.5000	29.0137
579.0000	28.5565
579.5000	28.0234
580.0000	27.7391
580.5000	27.4276
581.0000	26.9648
581.5000	26.5926
582.0000	26.2197
582.5000	25.8694
583.0000	25.6403
583.5000	25.1977
584.0000	24.885
584.5000	24.5529
585.0000	24.2355
585.5000	23.8331
586.0000	23.5555
586.5000	23.0846
587.0000	22.8089
587.5000	22.5797
588.0000	22.2392
588.5000	21.9918
589.0000	21.8466
589.5000	21.4134
590.0000	21.0845
590.5000	20.6803
591.0000	20.4035
591.5000	20.1174
592.0000	19.9467
592.5000	19.7511
593.0000	19.4788
593.5000	19.2209
594.0000	18.9567
594.5000	18.7439
595.0000	18.4532
595.5000	18.2844
596.0000	17.8419
596.5000	17.5956
597.0000	17.3983
597.5000	17.2136
598.0000	17.0145
598.5000	16.7969
599.0000	16.5646
599.5000	16.3392
600.0000	16.0815
600.5000	15.857
601.0000	15.6645
601.5000	15.4272
602.0000	15.1961
602.5000	15.042
603.0000	14.901
603.5000	14.7519
604.0000	14.5332
604.5000	14.268
605.0000	14.0414
605.5000	13.8886
606.0000	13.7146
606.5000	13.5907
607.0000	13.3291
607.5000	13.2119
608.0000	13.0689
608.5000	12.8947
609.0000	12.689
609.5000	12.677
610.0000	12.4051
610.5000	12.1684
611.0000	12.0693
611.5000	11.964
612.0000	11.7186
612.5000	11.6342
613.0000	11.4586
613.5000	11.332
614.0000	11.2152
614.5000	10.9334
615.0000	10.7908
615.5000	10.6989
616.0000	10.6184
616.5000	10.5288
617.0000	10.3011
617.5000	10.2176
618.0000	10.1226
618.5000	9.89837
619.0000	9.69886
619.5000	9.47693
620.0000	9.42727
620.5000	9.34297
621.0000	9.1495
621.5000	8.90075
622.0000	8.83268
622.5000	8.85837
623.0000	8.79298
623.5000	8.56557
624.0000	8.49447
624.5000	8.2662
625.0000	8.17693
625.5000	8.14304
626.0000	7.9379
626.5000	7.85229
627.0000	7.72996
627.5000	7.53686
628.0000	7.45931
628.5000	7.37034
629.0000	7.26163
629.5000	7.11242
630.0000	6.98213
630.5000	6.94654
631.0000	6.82284
631.5000	6.71043
632.0000	6.66429
632.5000	6.56251
633.0000	6.44394
633.5000	6.35462
634.0000	6.28186
634.5000	6.07563
635.0000	6.04687
635.5000	6.03973
636.0000	5.98662
636.5000	5.88102
637.0000	5.7803
637.5000	5.71044
638.0000	5.5837
638.5000	5.52324
639.0000	5.43311
639.5000	5.34924
640.0000	5.20686
640.5000	5.18393
641.0000	5.09672
641.5000	4.98979
642.0000	4.92652
642.5000	4.90286
643.0000	4.77514
643.5000	4.6081
644.0000	4.56882
644.5000	4.57783
645.0000	4.4752
645.5000	4.49434
646.0000	4.33073
646.5000	4.27671
647.0000	4.31604
647.5000	4.15131
648.0000	4.02383
648.5000	4.04214
649.0000	3.94891
649.5000	3.86367
650.0000	3.85554
650.5000	3.86933
651.0000	3.71994
651.5000	3.65027
652.0000	3.63893
652.5000	3.55926
653.0000	3.44569
653.5000	3.45932
654.0000	3.39398
654.5000	3.35243
655.0000	3.30822
655.5000	3.24708
656.0000	3.23439
656.5000	3.23082
657.0000	3.14261
657.5000	3.01845
658.0000	3.04338
658.5000	2.9934
659.0000	2.93078
659.5000	2.86727
660.0000	2.79704
660.5000	2.68875
661.0000	2.71444
661.5000	2.68838
662.0000	2.63522
662.5000	2.56493
663.0000	2.55854
663.5000	2.5603
664.0000	2.50545
664.5000	2.47764
665.0000	2.42994
665.5000	2.39202
666.0000	2.3284
666.5000	2.28501
667.0000	2.25117
667.5000	2.19268
668.0000	2.1625
668.5000	2.14336
669.0000	2.11525
669.5000	2.07191
670.0000	2.05992
670.5000	2.05698
671.0000	1.98501
671.5000	1.94802
672.0000	1.90544
672.5000	1.91671
673.0000	1.93024
673.5000	1.82698
674.0000	1.81119
674.5000	1.7372
675.0000	1.70818
675.5000	1.71887
676.0000	1.70779
676.5000	1.64696
677.0000	1.61804
677.5000	1.60735
678.0000	1.57501
678.5000	1.5713
679.0000	1.58598
679.5000	1.53316
680.0000	1.50385
680.5000	1.48951
681.0000	1.42005
681.5000	1.46816
682.0000	1.42044
682.5000	1.36398
683.0000	1.36085
683.5000	1.28913
684.0000	1.25693
684.5000	1.26562
685.0000	1.27222
685.5000	1.22875
686.0000	1.20269
686.5000	1.22508
687.0000	1.18556
687.5000	1.12447
688.0000	1.14536
688.5000	1.11584
689.0000	1.10839
689.5000	1.09532
690.0000	1.07415
690.5000	1.06361
691.0000	1.05536
691.5000	1.00651
692.0000	1.03536
692.5000	0.969512
693.0000	0.957257
693.5000	0.934316
694.0000	0.934366
694.5000	0.940875
695.0000	0.928374
695.5000	0.863155
696.0000	0.862153
696.5000	0.86996
697.0000	0.859352
697.5000	0.830364
698.0000	0.785724
698.5000	0.784128
699.0000	0.764274
699.5000	0.795863
700.0000	0.803989

##### Extended Information
[コメント情報]
試料名
コメント
測定者
所属
会社	関西大学

[データ情報]
作成日時	2025/05/14 21:33

データタイプ	等間隔データ
横軸	Wavelength [nm]
縦軸	Int.
スタート	449 nm
エンド	700 nm
データ間隔	0.5 nm
データ数	503     

[測定情報]
機種名	FP-8300
シリアル番号	C037361450
  Ex側フォルダ	なし
  Em側フォルダ	なし

付属品名	SCE-846
付属品シリアルNo.	C037361450

測定日時	2025/05/14 21:32

測定モード	蛍光
励起側バンド幅	5 nm
蛍光側バンド幅	5 nm
レスポンス	0.1 sec
感度	Low
測定範囲	449 - 700 nm
データ取込間隔	0.5 nm
励起波長	449.0 nm
走査速度	500 nm/min
オートゲイン	Off
自動シャッタ制御	測定時のみ開く
光源	キセノンランプ
フィルタ	交換時にスキャンを停止する
ブランク補正	Off

