TITLE	
DATA TYPE	FLUORESCENCE SPECTRUM
ORIGIN	JASCO
OWNER	
DATE	25/03/03
TIME	16:55:37
SPECTROMETER/DATA SYSTEM	
LOCALE	1041
RESOLUTION	
DELTAX	0.5
XUNITS	NANOMETERS
YUNITS	INTENSITY
FIRSTX	  465.0000
LASTX	  700.0000
NPOINTS	     471
FIRSTY	   157.35106
MAXY	   636.78003
MINY	     0.34390
XYDATA
465.0000	157.351
465.5000	173.514
466.0000	191.102
466.5000	209.56
467.0000	228.883
467.5000	249.544
468.0000	271.287
468.5000	293.963
469.0000	317.367
469.5000	340.911
470.0000	365.183
470.5000	389.614
471.0000	414.185
471.5000	438.33
472.0000	461.614
472.5000	484.266
473.0000	506.144
473.5000	526.249
474.0000	545.375
474.5000	562.775
475.0000	578.363
475.5000	591.996
476.0000	603.808
476.5000	614.009
477.0000	622.084
477.5000	628.307
478.0000	632.71
478.5000	635.631
479.0000	636.78
479.5000	636.348
480.0000	634.7
480.5000	631.369
481.0000	626.734
481.5000	620.993
482.0000	614.619
482.5000	607.514
483.0000	599.661
483.5000	591.016
484.0000	582.138
484.5000	572.665
485.0000	562.452
485.5000	552.225
486.0000	541.969
486.5000	531.908
487.0000	521.323
487.5000	510.511
488.0000	500.144
488.5000	489.796
489.0000	479.144
489.5000	468.777
490.0000	457.899
490.5000	447.081
491.0000	436.799
491.5000	426.457
492.0000	415.94
492.5000	405.269
493.0000	395.034
493.5000	385.407
494.0000	375.807
494.5000	366.576
495.0000	357.816
495.5000	349.565
496.0000	341.921
496.5000	335.131
497.0000	329.084
497.5000	323.697
498.0000	318.954
498.5000	314.701
499.0000	311.027
499.5000	308.015
500.0000	305.585
500.5000	303.79
501.0000	302.48
501.5000	301.668
502.0000	301.4
502.5000	301.204
503.0000	301.366
503.5000	302.195
504.0000	303.181
504.5000	304.336
505.0000	305.626
505.5000	307.085
506.0000	308.612
506.5000	310.029
507.0000	311.599
507.5000	313.138
508.0000	314.313
508.5000	315.586
509.0000	316.542
509.5000	317.224
510.0000	317.822
510.5000	318.366
511.0000	318.413
511.5000	318.016
512.0000	317.344
512.5000	316.27
513.0000	315.245
513.5000	313.798
514.0000	312.016
514.5000	309.807
515.0000	307.445
515.5000	304.722
516.0000	301.76
516.5000	298.557
517.0000	295.134
517.5000	291.573
518.0000	287.939
518.5000	284.217
519.0000	280.278
519.5000	276.194
520.0000	272.086
520.5000	267.9
521.0000	263.625
521.5000	259.617
522.0000	255.242
522.5000	251.118
523.0000	246.912
523.5000	242.69
524.0000	238.599
524.5000	234.378
525.0000	230.508
525.5000	226.462
526.0000	222.531
526.5000	218.665
527.0000	214.767
527.5000	211.083
528.0000	207.692
528.5000	204.1
529.0000	200.516
529.5000	197.196
530.0000	193.794
530.5000	190.518
531.0000	187.357
531.5000	184.293
532.0000	181.488
532.5000	178.731
533.0000	175.916
533.5000	173.141
534.0000	170.68
534.5000	168.281
535.0000	165.946
535.5000	163.757
536.0000	161.639
536.5000	159.527
537.0000	157.57
537.5000	155.723
538.0000	154.074
538.5000	152.441
539.0000	150.884
539.5000	149.582
540.0000	148.219
540.5000	146.541
541.0000	145.298
541.5000	144.152
542.0000	143.056
542.5000	141.924
543.0000	140.875
543.5000	139.707
544.0000	138.629
544.5000	137.759
545.0000	136.796
545.5000	135.711
546.0000	134.689
546.5000	133.624
547.0000	132.635
547.5000	131.528
548.0000	130.35
548.5000	129.251
549.0000	128.069
549.5000	126.909
550.0000	125.703
550.5000	124.402
551.0000	123.059
551.5000	121.765
552.0000	120.33
552.5000	118.892
553.0000	117.313
553.5000	115.755
554.0000	114.275
554.5000	112.703
555.0000	111.072
555.5000	109.39
556.0000	107.756
556.5000	106.143
557.0000	104.393
557.5000	102.648
558.0000	100.88
558.5000	99.1309
559.0000	97.3564
559.5000	95.5169
560.0000	93.7577
560.5000	91.9384
561.0000	90.1158
561.5000	88.3107
562.0000	86.5779
562.5000	84.7317
563.0000	83.0087
563.5000	81.2541
564.0000	79.4452
564.5000	77.7568
565.0000	76.0434
565.5000	74.3504
566.0000	72.6568
566.5000	70.9919
567.0000	69.378
567.5000	67.7615
568.0000	66.1529
568.5000	64.646
569.0000	63.1097
569.5000	61.6128
570.0000	60.1912
570.5000	58.7075
571.0000	57.3203
571.5000	55.9809
572.0000	54.6011
572.5000	53.3272
573.0000	52.1178
573.5000	50.8939
574.0000	49.6696
574.5000	48.5296
575.0000	47.353
575.5000	46.2519
576.0000	45.1519
576.5000	44.1365
577.0000	43.0957
577.5000	42.0865
578.0000	41.1588
578.5000	40.1947
579.0000	39.3056
579.5000	38.4765
580.0000	37.6594
580.5000	36.8242
581.0000	36.0628
581.5000	35.3073
582.0000	34.5693
582.5000	33.8905
583.0000	33.2271
583.5000	32.5663
584.0000	31.951
584.5000	31.345
585.0000	30.6889
585.5000	30.087
586.0000	29.5059
586.5000	28.9787
587.0000	28.4915
587.5000	27.9754
588.0000	27.4767
588.5000	26.9585
589.0000	26.4897
589.5000	26.0235
590.0000	25.6394
590.5000	25.1689
591.0000	24.6821
591.5000	24.2729
592.0000	23.8943
592.5000	23.4776
593.0000	23.0667
593.5000	22.6494
594.0000	22.2497
594.5000	21.9041
595.0000	21.5306
595.5000	21.1529
596.0000	20.7623
596.5000	20.441
597.0000	20.1041
597.5000	19.7822
598.0000	19.4583
598.5000	19.0849
599.0000	18.7375
599.5000	18.3874
600.0000	18.0823
600.5000	17.7519
601.0000	17.429
601.5000	17.1086
602.0000	16.7936
602.5000	16.4655
603.0000	16.164
603.5000	15.8356
604.0000	15.5427
604.5000	15.2774
605.0000	14.9763
605.5000	14.6805
606.0000	14.3935
606.5000	14.1115
607.0000	13.7899
607.5000	13.5282
608.0000	13.2721
608.5000	12.9739
609.0000	12.6636
609.5000	12.427
610.0000	12.1673
610.5000	11.9063
611.0000	11.6715
611.5000	11.4104
612.0000	11.1722
612.5000	10.9051
613.0000	10.6533
613.5000	10.4525
614.0000	10.2192
614.5000	9.9853
615.0000	9.78589
615.5000	9.5479
616.0000	9.30282
616.5000	9.09883
617.0000	8.91321
617.5000	8.70364
618.0000	8.51019
618.5000	8.31266
619.0000	8.12543
619.5000	7.93736
620.0000	7.74513
620.5000	7.57294
621.0000	7.38078
621.5000	7.19878
622.0000	7.06515
622.5000	6.88981
623.0000	6.73294
623.5000	6.59651
624.0000	6.43531
624.5000	6.29229
625.0000	6.12502
625.5000	5.98304
626.0000	5.85649
626.5000	5.71176
627.0000	5.56876
627.5000	5.42788
628.0000	5.31384
628.5000	5.19086
629.0000	5.04926
629.5000	4.9505
630.0000	4.85633
630.5000	4.74839
631.0000	4.62373
631.5000	4.53426
632.0000	4.41443
632.5000	4.32814
633.0000	4.23024
633.5000	4.14189
634.0000	4.06556
634.5000	3.95764
635.0000	3.84927
635.5000	3.77239
636.0000	3.69358
636.5000	3.63379
637.0000	3.5555
637.5000	3.46288
638.0000	3.40186
638.5000	3.33979
639.0000	3.25079
639.5000	3.16493
640.0000	3.09893
640.5000	3.04905
641.0000	2.97939
641.5000	2.93303
642.0000	2.87393
642.5000	2.81428
643.0000	2.75463
643.5000	2.73489
644.0000	2.66063
644.5000	2.58587
645.0000	2.53978
645.5000	2.50612
646.0000	2.4484
646.5000	2.40585
647.0000	2.34787
647.5000	2.32093
648.0000	2.27823
648.5000	2.22728
649.0000	2.17843
649.5000	2.12709
650.0000	2.10851
650.5000	2.05158
651.0000	1.98716
651.5000	1.9644
652.0000	1.92186
652.5000	1.89855
653.0000	1.84625
653.5000	1.79976
654.0000	1.78548
654.5000	1.75293
655.0000	1.71148
655.5000	1.66355
656.0000	1.64649
656.5000	1.61763
657.0000	1.59039
657.5000	1.56375
658.0000	1.52404
658.5000	1.50412
659.0000	1.47872
659.5000	1.45403
660.0000	1.41447
660.5000	1.37775
661.0000	1.3485
661.5000	1.33865
662.0000	1.29844
662.5000	1.27959
663.0000	1.26751
663.5000	1.24285
664.0000	1.21015
664.5000	1.18544
665.0000	1.15836
665.5000	1.15291
666.0000	1.12836
666.5000	1.10844
667.0000	1.07853
667.5000	1.05892
668.0000	1.0344
668.5000	1.01348
669.0000	1.00119
669.5000	0.972421
670.0000	0.956247
670.5000	0.926675
671.0000	0.934671
671.5000	0.910821
672.0000	0.895657
672.5000	0.87307
673.0000	0.855677
673.5000	0.836989
674.0000	0.827013
674.5000	0.797997
675.0000	0.801464
675.5000	0.793628
676.0000	0.764374
676.5000	0.746856
677.0000	0.717493
677.5000	0.719267
678.0000	0.712844
678.5000	0.694343
679.0000	0.684982
679.5000	0.673723
680.0000	0.659798
680.5000	0.649478
681.0000	0.625723
681.5000	0.620119
682.0000	0.61873
682.5000	0.584238
683.0000	0.570369
683.5000	0.574471
684.0000	0.554664
684.5000	0.544535
685.0000	0.555217
685.5000	0.558224
686.0000	0.538657
686.5000	0.535856
687.0000	0.531066
687.5000	0.521324
688.0000	0.500351
688.5000	0.489666
689.0000	0.48957
689.5000	0.476845
690.0000	0.471658
690.5000	0.446713
691.0000	0.446862
691.5000	0.430887
692.0000	0.440256
692.5000	0.433155
693.0000	0.420989
693.5000	0.404878
694.0000	0.416847
694.5000	0.414521
695.0000	0.406334
695.5000	0.390027
696.0000	0.387656
696.5000	0.380924
697.0000	0.380646
697.5000	0.365095
698.0000	0.353851
698.5000	0.372207
699.0000	0.36513
699.5000	0.343897
700.0000	0.350382

##### Extended Information
[コメント情報]
試料名
コメント
測定者
所属
会社	関西大学

[データ情報]
作成日時	2025/03/03 16:55

データタイプ	等間隔データ
横軸	Wavelength [nm]
縦軸	Int.
スタート	465 nm
エンド	700 nm
データ間隔	0.5 nm
データ数	471     

[測定情報]
機種名	FP-8300
シリアル番号	C037361450
  Ex側フォルダ	なし
  Em側フォルダ	なし

付属品名	SCE-846
付属品シリアルNo.	C037361450

測定日時	2025/03/03 16:55

測定モード	蛍光
励起側バンド幅	5 nm
蛍光側バンド幅	5 nm
レスポンス	0.1 sec
感度	Very low
測定範囲	465 - 700 nm
データ取込間隔	0.5 nm
励起波長	465.0 nm
走査速度	500 nm/min
オートゲイン	Off
自動シャッタ制御	測定時のみ開く
光源	キセノンランプ
フィルタ	交換時にスキャンを停止する
ブランク補正	Off

