TITLE	
DATA TYPE	FLUORESCENCE SPECTRUM
ORIGIN	JASCO
OWNER	
DATE	25/02/25
TIME	13:34:13
SPECTROMETER/DATA SYSTEM	
LOCALE	1041
RESOLUTION	
DELTAX	0.5
XUNITS	NANOMETERS
YUNITS	INTENSITY
FIRSTX	  447.0000
LASTX	  700.0000
NPOINTS	     507
FIRSTY	   306.76334
MAXY	   974.55493
MINY	     2.43825
XYDATA
447.0000	306.763
447.5000	333.482
448.0000	362.265
448.5000	393.586
449.0000	427.728
449.5000	465.151
450.0000	504.837
450.5000	545.97
451.0000	588.677
451.5000	632.968
452.0000	677.294
452.5000	719.411
453.0000	759.23
453.5000	796.863
454.0000	832.359
454.5000	863.961
455.0000	892.345
455.5000	916.159
456.0000	935.361
456.5000	950.604
457.0000	961.858
457.5000	969.774
458.0000	973.883
458.5000	974.555
459.0000	972.877
459.5000	967.966
460.0000	961.277
460.5000	952.366
461.0000	940.937
461.5000	928.331
462.0000	914.159
462.5000	898.932
463.0000	880.055
463.5000	862.815
464.0000	845.442
464.5000	826.128
465.0000	805.988
465.5000	785.303
466.0000	764.552
466.5000	744.715
467.0000	724.608
467.5000	704.85
468.0000	685.701
468.5000	667.024
469.0000	648.984
469.5000	631.728
470.0000	615.143
470.5000	599.647
471.0000	585.518
471.5000	572.222
472.0000	560.203
472.5000	549.598
473.0000	539.923
473.5000	531.66
474.0000	524.797
474.5000	519.215
475.0000	515.904
475.5000	513.975
476.0000	513.743
476.5000	514.54
477.0000	517.948
477.5000	522.474
478.0000	527.62
478.5000	534.583
479.0000	542.743
479.5000	551.705
480.0000	560.768
480.5000	571.565
481.0000	583.414
481.5000	594.287
482.0000	605.736
482.5000	617.353
483.0000	627.614
483.5000	638.013
484.0000	647.902
484.5000	657.875
485.0000	666.113
485.5000	673.524
486.0000	680.041
486.5000	685.605
487.0000	688.872
487.5000	691.461
488.0000	693.958
488.5000	695.218
489.0000	694.65
489.5000	692.07
490.0000	686.981
490.5000	680.886
491.0000	674.034
491.5000	665.347
492.0000	654.858
492.5000	643.301
493.0000	630.952
493.5000	616.982
494.0000	602.17
494.5000	586.264
495.0000	569.991
495.5000	554.405
496.0000	537.255
496.5000	520.976
497.0000	504.814
497.5000	488.327
498.0000	472.673
498.5000	456.629
499.0000	441.526
499.5000	426.456
500.0000	412.202
500.5000	398.937
501.0000	385.77
501.5000	373.339
502.0000	361.289
502.5000	350.24
503.0000	339.509
503.5000	329.871
504.0000	321.033
504.5000	312.108
505.0000	304.502
505.5000	296.743
506.0000	290.377
506.5000	284.676
507.0000	279.347
507.5000	273.857
508.0000	269.681
508.5000	264.905
509.0000	261.514
509.5000	258.396
510.0000	255.515
510.5000	253.403
511.0000	251.111
511.5000	249.413
512.0000	247.651
512.5000	246.385
513.0000	245.704
513.5000	245.408
514.0000	244.485
514.5000	244.381
515.0000	244.166
515.5000	244.047
516.0000	243.636
516.5000	244.747
517.0000	245.267
517.5000	245.304
518.0000	245.001
518.5000	245.442
519.0000	246.334
519.5000	246.833
520.0000	247.283
520.5000	248.103
521.0000	248.525
521.5000	248.529
522.0000	249.059
522.5000	249.612
523.0000	250.148
523.5000	250.772
524.0000	250.938
524.5000	251.408
525.0000	251.167
525.5000	250.326
526.0000	251.079
526.5000	251.309
527.0000	250.116
527.5000	250.115
528.0000	250.266
528.5000	249.486
529.0000	248.8
529.5000	247.756
530.0000	246.217
530.5000	245.522
531.0000	244.645
531.5000	243.269
532.0000	241.88
532.5000	240.767
533.0000	238.961
533.5000	237.287
534.0000	235.569
534.5000	233.381
535.0000	231.094
535.5000	229.574
536.0000	227.75
536.5000	225.452
537.0000	222.86
537.5000	220.826
538.0000	218.436
538.5000	215.961
539.0000	213.834
539.5000	212.141
540.0000	209.722
540.5000	206.632
541.0000	204.084
541.5000	201.841
542.0000	199.784
542.5000	197.599
543.0000	195.294
543.5000	193.073
544.0000	191.142
544.5000	188.809
545.0000	186.765
545.5000	185.121
546.0000	183.117
546.5000	181.003
547.0000	179.049
547.5000	177.179
548.0000	175.542
548.5000	173.321
549.0000	171.553
549.5000	170.058
550.0000	168.636
550.5000	166.744
551.0000	164.945
551.5000	163.884
552.0000	162.641
552.5000	160.654
553.0000	159.289
553.5000	158.065
554.0000	156.279
554.5000	155.222
555.0000	153.471
555.5000	152.311
556.0000	151.41
556.5000	150.015
557.0000	148.836
557.5000	147.875
558.0000	146.783
558.5000	145.089
559.0000	143.564
559.5000	142.456
560.0000	141.557
560.5000	140.037
561.0000	138.869
561.5000	137.953
562.0000	136.624
562.5000	135.378
563.0000	134.206
563.5000	132.848
564.0000	131.889
564.5000	130.752
565.0000	129.353
565.5000	128.567
566.0000	127.591
566.5000	126.34
567.0000	125.034
567.5000	123.707
568.0000	122.712
568.5000	121.205
569.0000	120.09
569.5000	118.952
570.0000	117.484
570.5000	116.337
571.0000	115.044
571.5000	113.534
572.0000	112.424
572.5000	111.134
573.0000	110.035
573.5000	108.749
574.0000	107.615
574.5000	106.617
575.0000	105.142
575.5000	103.61
576.0000	102.651
576.5000	101.303
577.0000	100.45
577.5000	99.0359
578.0000	97.6385
578.5000	96.2803
579.0000	95.0412
579.5000	93.8626
580.0000	92.6698
580.5000	91.4731
581.0000	90.3613
581.5000	89.4844
582.0000	88.4674
582.5000	87.2759
583.0000	85.8939
583.5000	84.5058
584.0000	83.7587
584.5000	82.8715
585.0000	81.6416
585.5000	80.5463
586.0000	79.4972
586.5000	78.2666
587.0000	77.0207
587.5000	75.8422
588.0000	74.9824
588.5000	74.1387
589.0000	73.1821
589.5000	72.4331
590.0000	71.4433
590.5000	70.1991
591.0000	69.2311
591.5000	68.2025
592.0000	67.2147
592.5000	66.627
593.0000	65.8333
593.5000	64.72
594.0000	63.8073
594.5000	62.9353
595.0000	62.194
595.5000	61.3641
596.0000	60.5447
596.5000	59.6387
597.0000	58.8723
597.5000	58.1763
598.0000	57.5111
598.5000	56.7665
599.0000	56.2511
599.5000	55.5193
600.0000	54.577
600.5000	53.5939
601.0000	52.9859
601.5000	52.5221
602.0000	51.8667
602.5000	51.0558
603.0000	50.3587
603.5000	49.6034
604.0000	48.9246
604.5000	48.3895
605.0000	47.8558
605.5000	47.2958
606.0000	46.6798
606.5000	45.8646
607.0000	45.2556
607.5000	44.7076
608.0000	44.0305
608.5000	43.3678
609.0000	42.8818
609.5000	42.314
610.0000	41.7299
610.5000	41.0859
611.0000	40.5159
611.5000	40.042
612.0000	39.5005
612.5000	38.8685
613.0000	38.3572
613.5000	37.8894
614.0000	37.3228
614.5000	36.9974
615.0000	36.4334
615.5000	36.0499
616.0000	35.586
616.5000	35.0231
617.0000	34.5768
617.5000	33.8561
618.0000	33.257
618.5000	32.8452
619.0000	32.5634
619.5000	32.1226
620.0000	31.6194
620.5000	31.1713
621.0000	31.0434
621.5000	30.4823
622.0000	30.0025
622.5000	29.4223
623.0000	29.0054
623.5000	28.6672
624.0000	28.0494
624.5000	27.6521
625.0000	27.3602
625.5000	27.0086
626.0000	26.619
626.5000	26.3293
627.0000	25.8766
627.5000	25.4809
628.0000	25.0672
628.5000	24.6142
629.0000	24.1265
629.5000	23.8351
630.0000	23.6747
630.5000	23.2612
631.0000	22.881
631.5000	22.5445
632.0000	22.1144
632.5000	21.8234
633.0000	21.3783
633.5000	21.1275
634.0000	20.7698
634.5000	20.6309
635.0000	20.3328
635.5000	19.8716
636.0000	19.481
636.5000	19.3016
637.0000	19.077
637.5000	18.8866
638.0000	18.4604
638.5000	18.2538
639.0000	18.0898
639.5000	17.7566
640.0000	17.3107
640.5000	17.0124
641.0000	16.8
641.5000	16.5265
642.0000	16.2369
642.5000	15.981
643.0000	15.7391
643.5000	15.572
644.0000	15.2979
644.5000	15.0276
645.0000	14.7425
645.5000	14.6132
646.0000	14.5038
646.5000	14.2962
647.0000	13.938
647.5000	13.6319
648.0000	13.4389
648.5000	13.1995
649.0000	13.0576
649.5000	12.8251
650.0000	12.6379
650.5000	12.6268
651.0000	12.3701
651.5000	12.0164
652.0000	11.8942
652.5000	11.8159
653.0000	11.5233
653.5000	11.3181
654.0000	11.1711
654.5000	11.0171
655.0000	10.8393
655.5000	10.6486
656.0000	10.352
656.5000	10.3013
657.0000	10.1105
657.5000	10.0134
658.0000	9.87461
658.5000	9.70745
659.0000	9.56477
659.5000	9.3339
660.0000	9.23146
660.5000	9.05485
661.0000	8.93847
661.5000	8.86353
662.0000	8.6436
662.5000	8.55111
663.0000	8.33314
663.5000	8.22006
664.0000	8.05225
664.5000	7.93332
665.0000	7.87968
665.5000	7.80953
666.0000	7.68173
666.5000	7.5605
667.0000	7.35165
667.5000	7.21815
668.0000	7.09125
668.5000	6.88785
669.0000	6.76545
669.5000	6.73514
670.0000	6.58547
670.5000	6.49067
671.0000	6.45436
671.5000	6.35557
672.0000	6.18758
672.5000	6.05457
673.0000	5.97645
673.5000	5.91872
674.0000	5.82427
674.5000	5.79954
675.0000	5.67544
675.5000	5.57948
676.0000	5.51531
676.5000	5.32233
677.0000	5.25752
677.5000	5.2258
678.0000	5.07794
678.5000	5.0218
679.0000	4.94573
679.5000	4.87503
680.0000	4.77028
680.5000	4.65398
681.0000	4.64597
681.5000	4.56275
682.0000	4.4866
682.5000	4.40151
683.0000	4.39427
683.5000	4.28757
684.0000	4.18247
684.5000	4.11728
685.0000	4.08144
685.5000	3.99899
686.0000	3.92968
686.5000	3.83263
687.0000	3.77829
687.5000	3.72056
688.0000	3.66471
688.5000	3.61583
689.0000	3.54661
689.5000	3.48308
690.0000	3.4519
690.5000	3.35544
691.0000	3.30786
691.5000	3.23612
692.0000	3.24476
692.5000	3.1393
693.0000	3.09313
693.5000	2.99309
694.0000	3.03355
694.5000	2.96849
695.0000	2.9391
695.5000	2.85393
696.0000	2.79022
696.5000	2.76246
697.0000	2.70886
697.5000	2.66011
698.0000	2.6544
698.5000	2.59567
699.0000	2.53058
699.5000	2.43825
700.0000	2.4402

##### Extended Information
[コメント情報]
試料名
コメント
測定者
所属
会社	関西大学

[データ情報]
作成日時	2025/02/25 13:34

データタイプ	等間隔データ
横軸	Wavelength [nm]
縦軸	Int.
スタート	447 nm
エンド	700 nm
データ間隔	0.5 nm
データ数	507     

[測定情報]
機種名	FP-8300
シリアル番号	C037361450
  Ex側フォルダ	なし
  Em側フォルダ	なし

付属品名	SCE-846
付属品シリアルNo.	C037361450

測定日時	2025/02/25 13:34

測定モード	蛍光
励起側バンド幅	5 nm
蛍光側バンド幅	5 nm
レスポンス	0.1 sec
感度	Low
測定範囲	447 - 700 nm
データ取込間隔	0.5 nm
励起波長	447.0 nm
走査速度	500 nm/min
オートゲイン	Off
自動シャッタ制御	測定時のみ開く
光源	キセノンランプ
フィルタ	交換時にスキャンを停止する
ブランク補正	Off

