TITLE	
DATA TYPE	FLUORESCENCE SPECTRUM
ORIGIN	JASCO
OWNER	
DATE	25/05/14
TIME	20:54:01
SPECTROMETER/DATA SYSTEM	
LOCALE	1041
RESOLUTION	
DELTAX	0.5
XUNITS	NANOMETERS
YUNITS	INTENSITY
FIRSTX	  449.0000
LASTX	  700.0000
NPOINTS	     503
FIRSTY	   604.78339
MAXY	  1156.44690
MINY	     1.72639
XYDATA
449.0000	604.783
449.5000	652.785
450.0000	700.415
450.5000	745.663
451.0000	791.484
451.5000	837.654
452.0000	883.88
452.5000	928.605
453.0000	970.308
453.5000	1008.48
454.0000	1042.44
454.5000	1072.8
455.0000	1099.06
455.5000	1120.05
456.0000	1136.2
456.5000	1147.23
457.0000	1154.93
457.5000	1156.45
458.0000	1154.13
458.5000	1147.99
459.0000	1140.37
459.5000	1130.15
460.0000	1116.71
460.5000	1099.42
461.0000	1080.22
461.5000	1060.35
462.0000	1039.26
462.5000	1015.76
463.0000	992.462
463.5000	966.952
464.0000	940.346
464.5000	914.119
465.0000	887.968
465.5000	862.574
466.0000	836.524
466.5000	811.3
467.0000	786.565
467.5000	761.655
468.0000	737.653
468.5000	714.27
469.0000	692.179
469.5000	671.836
470.0000	652.508
470.5000	633.51
471.0000	616.315
471.5000	601.829
472.0000	588.125
472.5000	575.558
473.0000	565.653
473.5000	556.871
474.0000	549.381
474.5000	545.139
475.0000	542.739
475.5000	541.162
476.0000	541.873
476.5000	544.373
477.0000	548.678
477.5000	554.832
478.0000	562.788
478.5000	571.761
479.0000	582.579
479.5000	593.47
480.0000	605.552
480.5000	618.788
481.0000	631.143
481.5000	642.784
482.0000	655.736
482.5000	667.097
483.0000	677.963
483.5000	688.248
484.0000	697.282
484.5000	705.5
485.0000	712.731
485.5000	717.761
486.0000	721.352
486.5000	724.677
487.0000	728.412
487.5000	728.957
488.0000	727.606
488.5000	725.077
489.0000	720.949
489.5000	715.371
490.0000	706.491
490.5000	697.41
491.0000	686.895
491.5000	674.307
492.0000	660.032
492.5000	645.355
493.0000	628.435
493.5000	611.093
494.0000	593.824
494.5000	575.193
495.0000	555.97
495.5000	537.138
496.0000	518.257
496.5000	499.535
497.0000	481.045
497.5000	462.489
498.0000	444.169
498.5000	427.057
499.0000	410.643
499.5000	394.105
500.0000	378.754
500.5000	364.368
501.0000	350.474
501.5000	336.924
502.0000	324.407
502.5000	311.841
503.0000	301.2
503.5000	291.025
504.0000	281.379
504.5000	272
505.0000	263.64
505.5000	255.732
506.0000	248.783
506.5000	242.139
507.0000	236.404
507.5000	231.21
508.0000	226.744
508.5000	222.466
509.0000	218.483
509.5000	214.842
510.0000	212.133
510.5000	209.97
511.0000	207.486
511.5000	205.325
512.0000	203.958
512.5000	202.527
513.0000	201.446
513.5000	200.398
514.0000	200.051
514.5000	199.428
515.0000	199.415
515.5000	198.991
516.0000	198.914
516.5000	198.532
517.0000	198.614
517.5000	199.073
518.0000	199.319
518.5000	199.429
519.0000	199.661
519.5000	199.966
520.0000	200.527
520.5000	200.427
521.0000	200.826
521.5000	201.202
522.0000	201.549
522.5000	201.56
523.0000	201.235
523.5000	201.53
524.0000	201.771
524.5000	201.122
525.0000	201.103
525.5000	201.09
526.0000	201.082
526.5000	200.395
527.0000	199.372
527.5000	199.087
528.0000	198.511
528.5000	198.035
529.0000	197.386
529.5000	196.7
530.0000	195.667
530.5000	194.285
531.0000	192.873
531.5000	191.351
532.0000	190.072
532.5000	188.79
533.0000	187.338
533.5000	186.267
534.0000	184.484
534.5000	182.454
535.0000	180.312
535.5000	178.554
536.0000	176.876
536.5000	174.926
537.0000	173.5
537.5000	171.303
538.0000	169.01
538.5000	166.74
539.0000	164.548
539.5000	162.986
540.0000	160.852
540.5000	158.056
541.0000	156.29
541.5000	154.112
542.0000	152.131
542.5000	149.763
543.0000	148.489
543.5000	146.877
544.0000	145.066
544.5000	143.267
545.0000	141.246
545.5000	139.716
546.0000	138.145
546.5000	136.351
547.0000	134.545
547.5000	133.158
548.0000	131.776
548.5000	130.241
549.0000	128.731
549.5000	127.609
550.0000	126.692
550.5000	125.558
551.0000	124.287
551.5000	123.196
552.0000	121.799
552.5000	120.731
553.0000	119.654
553.5000	118.544
554.0000	117.731
554.5000	116.673
555.0000	115.831
555.5000	115.143
556.0000	114.258
556.5000	113.05
557.0000	112.2
557.5000	111.142
558.0000	110.48
558.5000	109.394
559.0000	108.649
559.5000	107.626
560.0000	107.129
560.5000	106.392
561.0000	105.323
561.5000	104.436
562.0000	103.852
562.5000	103.089
563.0000	101.88
563.5000	101.228
564.0000	100.421
564.5000	99.6011
565.0000	98.8766
565.5000	97.8395
566.0000	96.7922
566.5000	96.0735
567.0000	95.2469
567.5000	94.3179
568.0000	93.0809
568.5000	92.2867
569.0000	91.0872
569.5000	90.2589
570.0000	89.1062
570.5000	88.2447
571.0000	87.3271
571.5000	86.1995
572.0000	85.2826
572.5000	84.5783
573.0000	83.1603
573.5000	82.3564
574.0000	81.286
574.5000	80.3066
575.0000	79.1762
575.5000	78.1131
576.0000	77.3684
576.5000	76.2126
577.0000	75.397
577.5000	74.4638
578.0000	73.3649
578.5000	72.2405
579.0000	71.333
579.5000	70.3504
580.0000	69.3684
580.5000	68.5354
581.0000	67.4981
581.5000	66.6326
582.0000	65.6997
582.5000	64.8512
583.0000	63.9282
583.5000	63.0501
584.0000	62.2022
584.5000	61.2148
585.0000	60.1974
585.5000	59.2126
586.0000	58.5312
586.5000	57.796
587.0000	56.893
587.5000	56.0552
588.0000	55.2157
588.5000	54.5519
589.0000	53.7353
589.5000	52.8632
590.0000	52.1068
590.5000	51.4934
591.0000	50.7071
591.5000	49.8612
592.0000	49.4231
592.5000	48.6402
593.0000	47.8641
593.5000	47.0533
594.0000	46.3757
594.5000	45.824
595.0000	45.3938
595.5000	44.7556
596.0000	43.9746
596.5000	43.3915
597.0000	43.0148
597.5000	42.2301
598.0000	41.6504
598.5000	41.1249
599.0000	40.5511
599.5000	39.8897
600.0000	39.4082
600.5000	38.9409
601.0000	38.4698
601.5000	38.0201
602.0000	37.483
602.5000	36.8058
603.0000	36.3296
603.5000	35.9224
604.0000	35.3038
604.5000	34.7814
605.0000	34.5664
605.5000	34.1031
606.0000	33.6456
606.5000	33.3188
607.0000	32.9257
607.5000	32.4655
608.0000	32.1002
608.5000	31.4382
609.0000	30.9534
609.5000	30.6498
610.0000	30.174
610.5000	29.7277
611.0000	29.281
611.5000	28.8684
612.0000	28.6283
612.5000	28.2229
613.0000	27.8022
613.5000	27.3093
614.0000	27.0017
614.5000	26.6884
615.0000	26.3822
615.5000	25.9723
616.0000	25.6236
616.5000	25.2177
617.0000	24.8981
617.5000	24.4433
618.0000	24.1037
618.5000	23.8584
619.0000	23.4744
619.5000	23.2846
620.0000	22.8628
620.5000	22.5433
621.0000	22.0975
621.5000	21.6918
622.0000	21.4671
622.5000	21.2453
623.0000	21.0218
623.5000	20.676
624.0000	20.342
624.5000	19.8744
625.0000	19.7472
625.5000	19.5003
626.0000	19.1768
626.5000	18.8312
627.0000	18.712
627.5000	18.3753
628.0000	17.8345
628.5000	17.6959
629.0000	17.5389
629.5000	17.2232
630.0000	16.8697
630.5000	16.6295
631.0000	16.49
631.5000	16.2344
632.0000	15.7923
632.5000	15.6001
633.0000	15.4569
633.5000	15.166
634.0000	14.8649
634.5000	14.7288
635.0000	14.4403
635.5000	14.2801
636.0000	14.0052
636.5000	13.8947
637.0000	13.7592
637.5000	13.5384
638.0000	13.2468
638.5000	13.1081
639.0000	12.8217
639.5000	12.6538
640.0000	12.3923
640.5000	12.1432
641.0000	11.9566
641.5000	11.8321
642.0000	11.7026
642.5000	11.4845
643.0000	11.2789
643.5000	11.1033
644.0000	10.9998
644.5000	10.8323
645.0000	10.6926
645.5000	10.5175
646.0000	10.2619
646.5000	10.042
647.0000	9.99812
647.5000	9.81071
648.0000	9.64339
648.5000	9.54589
649.0000	9.40997
649.5000	9.08488
650.0000	8.99266
650.5000	8.85332
651.0000	8.72132
651.5000	8.59334
652.0000	8.41492
652.5000	8.38736
653.0000	8.27959
653.5000	8.17199
654.0000	8.06473
654.5000	7.9462
655.0000	7.71018
655.5000	7.56827
656.0000	7.45653
656.5000	7.36493
657.0000	7.27711
657.5000	7.16699
658.0000	6.99323
658.5000	6.78722
659.0000	6.75622
659.5000	6.65847
660.0000	6.63173
660.5000	6.49958
661.0000	6.38067
661.5000	6.29908
662.0000	6.30764
662.5000	6.12345
663.0000	5.92444
663.5000	5.83589
664.0000	5.79567
664.5000	5.64221
665.0000	5.50576
665.5000	5.42654
666.0000	5.37393
666.5000	5.36903
667.0000	5.26081
667.5000	5.19739
668.0000	5.04632
668.5000	5.02434
669.0000	4.91718
669.5000	4.86301
670.0000	4.83971
670.5000	4.76356
671.0000	4.69359
671.5000	4.54288
672.0000	4.48116
672.5000	4.4127
673.0000	4.35579
673.5000	4.25194
674.0000	4.1429
674.5000	4.07489
675.0000	4.02507
675.5000	3.88375
676.0000	3.83189
676.5000	3.84387
677.0000	3.75558
677.5000	3.72527
678.0000	3.66421
678.5000	3.61663
679.0000	3.48157
679.5000	3.40411
680.0000	3.38712
680.5000	3.31721
681.0000	3.28132
681.5000	3.24547
682.0000	3.16278
682.5000	3.11739
683.0000	3.05078
683.5000	3.04498
684.0000	2.96769
684.5000	2.9313
685.0000	2.92828
685.5000	2.79606
686.0000	2.76909
686.5000	2.74375
687.0000	2.64167
687.5000	2.59457
688.0000	2.61173
688.5000	2.55739
689.0000	2.53222
689.5000	2.47654
690.0000	2.49171
690.5000	2.38851
691.0000	2.34267
691.5000	2.34296
692.0000	2.27851
692.5000	2.19566
693.0000	2.20397
693.5000	2.15691
694.0000	2.11251
694.5000	2.05849
695.0000	2.08187
695.5000	2.0213
696.0000	1.93992
696.5000	2.01071
697.0000	1.97033
697.5000	1.88154
698.0000	1.81785
698.5000	1.83883
699.0000	1.83092
699.5000	1.74861
700.0000	1.72639

##### Extended Information
[コメント情報]
試料名
コメント
測定者
所属
会社	関西大学

[データ情報]
作成日時	2025/05/14 20:54

データタイプ	等間隔データ
横軸	Wavelength [nm]
縦軸	Int.
スタート	449 nm
エンド	700 nm
データ間隔	0.5 nm
データ数	503     

[測定情報]
機種名	FP-8300
シリアル番号	C037361450
  Ex側フォルダ	なし
  Em側フォルダ	なし

付属品名	SCE-846
付属品シリアルNo.	C037361450

測定日時	2025/05/14 20:54

測定モード	蛍光
励起側バンド幅	5 nm
蛍光側バンド幅	5 nm
レスポンス	0.1 sec
感度	Low
測定範囲	449 - 700 nm
データ取込間隔	0.5 nm
励起波長	449.0 nm
走査速度	500 nm/min
オートゲイン	Off
自動シャッタ制御	測定時のみ開く
光源	キセノンランプ
フィルタ	交換時にスキャンを停止する
ブランク補正	Off

