TITLE	
DATA TYPE	FLUORESCENCE SPECTRUM
ORIGIN	JASCO
OWNER	
DATE	25/03/25
TIME	14:28:33
SPECTROMETER/DATA SYSTEM	
LOCALE	1041
RESOLUTION	
DELTAX	0.5
XUNITS	NANOMETERS
YUNITS	INTENSITY
FIRSTX	  450.0000
LASTX	  700.0000
NPOINTS	     501
FIRSTY	   309.80191
MAXY	   651.63068
MINY	     0.73193
XYDATA
450.0000	309.802
450.5000	330.356
451.0000	349.92
451.5000	369.055
452.0000	388.158
452.5000	407.201
453.0000	426.212
453.5000	445.56
454.0000	465.214
454.5000	485.037
455.0000	504.88
455.5000	524.83
456.0000	543.799
456.5000	561.893
457.0000	578.922
457.5000	594.082
458.0000	607.98
458.5000	620.168
459.0000	629.733
459.5000	637.613
460.0000	643.884
460.5000	648.198
461.0000	650.832
461.5000	651.631
462.0000	650.54
462.5000	647.355
463.0000	643.148
463.5000	637.309
464.0000	630.216
464.5000	621.71
465.0000	611.784
465.5000	600.928
466.0000	589.291
466.5000	577.136
467.0000	564.007
467.5000	550.579
468.0000	537.52
468.5000	524.194
469.0000	510.963
469.5000	497.991
470.0000	485.369
470.5000	473.157
471.0000	461.547
471.5000	450.367
472.0000	440.363
472.5000	431.307
473.0000	423.234
473.5000	416.308
474.0000	410.239
474.5000	405.538
475.0000	402.348
475.5000	400.568
476.0000	400.257
476.5000	401.122
477.0000	403.579
477.5000	407.482
478.0000	412.676
478.5000	419.01
479.0000	426.329
479.5000	435.048
480.0000	444.361
480.5000	454.045
481.0000	464.316
481.5000	474.834
482.0000	485.531
482.5000	495.939
483.0000	505.932
483.5000	515.507
484.0000	524.028
484.5000	531.97
485.0000	539.183
485.5000	545.013
486.0000	550.144
486.5000	554.305
487.0000	557.031
487.5000	558.747
488.0000	559.361
488.5000	558.693
489.0000	556.399
489.5000	552.633
490.0000	547.418
490.5000	541.175
491.0000	533.612
491.5000	524.579
492.0000	514.26
492.5000	503.004
493.0000	490.535
493.5000	477.201
494.0000	463.273
494.5000	448.903
495.0000	434.146
495.5000	419.097
496.0000	404.195
496.5000	389.31
497.0000	374.768
497.5000	360.064
498.0000	345.746
498.5000	331.935
499.0000	318.673
499.5000	305.777
500.0000	293.318
500.5000	281.193
501.0000	269.73
501.5000	258.964
502.0000	248.619
502.5000	238.921
503.0000	229.763
503.5000	220.854
504.0000	212.72
504.5000	205.278
505.0000	198.314
505.5000	191.719
506.0000	185.523
506.5000	179.837
507.0000	174.874
507.5000	170.199
508.0000	165.89
508.5000	162.125
509.0000	158.536
509.5000	155.311
510.0000	152.456
510.5000	149.934
511.0000	147.702
511.5000	145.788
512.0000	144.106
512.5000	142.689
513.0000	141.487
513.5000	140.456
514.0000	139.626
514.5000	138.951
515.0000	138.456
515.5000	137.923
516.0000	137.498
516.5000	137.388
517.0000	137.363
517.5000	137.317
518.0000	137.054
518.5000	136.99
519.0000	136.986
519.5000	136.933
520.0000	136.834
520.5000	136.854
521.0000	136.73
521.5000	136.562
522.0000	136.388
522.5000	136.195
523.0000	135.925
523.5000	135.564
524.0000	135.165
524.5000	134.66
525.0000	134.003
525.5000	133.423
526.0000	132.697
526.5000	131.781
527.0000	130.893
527.5000	130.005
528.0000	128.92
528.5000	127.812
529.0000	126.678
529.5000	125.274
530.0000	123.863
530.5000	122.396
531.0000	120.955
531.5000	119.31
532.0000	117.772
532.5000	116.084
533.0000	114.258
533.5000	112.642
534.0000	110.88
534.5000	109.025
535.0000	107.223
535.5000	105.328
536.0000	103.499
536.5000	101.643
537.0000	99.7585
537.5000	97.9053
538.0000	96.071
538.5000	94.2523
539.0000	92.4009
539.5000	90.6135
540.0000	88.7541
540.5000	86.5915
541.0000	84.8654
541.5000	83.2346
542.0000	81.6366
542.5000	80.0287
543.0000	78.4674
543.5000	76.9643
544.0000	75.5896
544.5000	74.115
545.0000	72.7173
545.5000	71.3501
546.0000	70.022
546.5000	68.7786
547.0000	67.6137
547.5000	66.5293
548.0000	65.3986
548.5000	64.3478
549.0000	63.3228
549.5000	62.2877
550.0000	61.3296
550.5000	60.5024
551.0000	59.6481
551.5000	58.8666
552.0000	58.1085
552.5000	57.3324
553.0000	56.6302
553.5000	55.991
554.0000	55.2883
554.5000	54.719
555.0000	54.1553
555.5000	53.6139
556.0000	53.0355
556.5000	52.5338
557.0000	52.0922
557.5000	51.5969
558.0000	51.0717
558.5000	50.6575
559.0000	50.2213
559.5000	49.7478
560.0000	49.3307
560.5000	48.8592
561.0000	48.4448
561.5000	48.0745
562.0000	47.725
562.5000	47.3744
563.0000	46.8466
563.5000	46.3788
564.0000	46.0246
564.5000	45.6223
565.0000	45.2204
565.5000	44.7939
566.0000	44.3689
566.5000	43.9627
567.0000	43.544
567.5000	43.0612
568.0000	42.6497
568.5000	42.2274
569.0000	41.6892
569.5000	41.184
570.0000	40.7531
570.5000	40.2608
571.0000	39.7414
571.5000	39.2574
572.0000	38.8083
572.5000	38.3429
573.0000	37.76
573.5000	37.2807
574.0000	36.8045
574.5000	36.3421
575.0000	35.7713
575.5000	35.2513
576.0000	34.6801
576.5000	34.2306
577.0000	33.7074
577.5000	33.1793
578.0000	32.643
578.5000	32.1323
579.0000	31.6292
579.5000	31.1358
580.0000	30.6093
580.5000	30.179
581.0000	29.6694
581.5000	29.1361
582.0000	28.6725
582.5000	28.2437
583.0000	27.7442
583.5000	27.2475
584.0000	26.7885
584.5000	26.3124
585.0000	25.8384
585.5000	25.4073
586.0000	25.0216
586.5000	24.5487
587.0000	24.116
587.5000	23.7316
588.0000	23.3318
588.5000	22.8847
589.0000	22.5155
589.5000	22.0949
590.0000	21.7296
590.5000	21.3817
591.0000	20.9639
591.5000	20.6635
592.0000	20.2964
592.5000	19.9243
593.0000	19.5934
593.5000	19.2673
594.0000	18.9691
594.5000	18.6565
595.0000	18.4174
595.5000	18.0709
596.0000	17.7341
596.5000	17.4575
597.0000	17.1757
597.5000	16.9178
598.0000	16.6314
598.5000	16.3534
599.0000	16.0893
599.5000	15.8746
600.0000	15.638
600.5000	15.4054
601.0000	15.1704
601.5000	14.9391
602.0000	14.7095
602.5000	14.467
603.0000	14.2349
603.5000	14.007
604.0000	13.8223
604.5000	13.6125
605.0000	13.4307
605.5000	13.235
606.0000	13.0419
606.5000	12.8595
607.0000	12.6991
607.5000	12.488
608.0000	12.3032
608.5000	12.1192
609.0000	11.946
609.5000	11.7782
610.0000	11.5885
610.5000	11.4112
611.0000	11.2902
611.5000	11.061
612.0000	10.9077
612.5000	10.7763
613.0000	10.608
613.5000	10.4538
614.0000	10.3222
614.5000	10.1448
615.0000	9.97087
615.5000	9.86557
616.0000	9.72662
616.5000	9.58076
617.0000	9.42167
617.5000	9.31751
618.0000	9.14695
618.5000	9.00696
619.0000	8.87735
619.5000	8.75286
620.0000	8.61071
620.5000	8.44212
621.0000	8.33457
621.5000	8.19971
622.0000	8.08272
622.5000	7.94839
623.0000	7.826
623.5000	7.69863
624.0000	7.59426
624.5000	7.4597
625.0000	7.34793
625.5000	7.25345
626.0000	7.10839
626.5000	6.98042
627.0000	6.85609
627.5000	6.74391
628.0000	6.65591
628.5000	6.56059
629.0000	6.43438
629.5000	6.30823
630.0000	6.18556
630.5000	6.08911
631.0000	5.99123
631.5000	5.89813
632.0000	5.78793
632.5000	5.71659
633.0000	5.62113
633.5000	5.52939
634.0000	5.44661
634.5000	5.36005
635.0000	5.26642
635.5000	5.15683
636.0000	5.06379
636.5000	4.95261
637.0000	4.8798
637.5000	4.81752
638.0000	4.73823
638.5000	4.64704
639.0000	4.58566
639.5000	4.52388
640.0000	4.4437
640.5000	4.35832
641.0000	4.27982
641.5000	4.20196
642.0000	4.13159
642.5000	4.07294
643.0000	4.0179
643.5000	3.93936
644.0000	3.83916
644.5000	3.78522
645.0000	3.709
645.5000	3.66819
646.0000	3.61577
646.5000	3.53779
647.0000	3.50828
647.5000	3.43847
648.0000	3.37566
648.5000	3.31172
649.0000	3.24936
649.5000	3.22624
650.0000	3.14683
650.5000	3.101
651.0000	3.02588
651.5000	2.98926
652.0000	2.93743
652.5000	2.89191
653.0000	2.84447
653.5000	2.81319
654.0000	2.76555
654.5000	2.71154
655.0000	2.67866
655.5000	2.64055
656.0000	2.60101
656.5000	2.54564
657.0000	2.51256
657.5000	2.48909
658.0000	2.44443
658.5000	2.37093
659.0000	2.3617
659.5000	2.30991
660.0000	2.2874
660.5000	2.24994
661.0000	2.21374
661.5000	2.18444
662.0000	2.158
662.5000	2.1281
663.0000	2.09249
663.5000	2.04334
664.0000	2.02668
664.5000	1.99341
665.0000	1.96834
665.5000	1.92016
666.0000	1.87795
666.5000	1.86065
667.0000	1.83856
667.5000	1.80994
668.0000	1.77188
668.5000	1.74773
669.0000	1.73605
669.5000	1.72035
670.0000	1.6658
670.5000	1.65044
671.0000	1.63905
671.5000	1.59693
672.0000	1.56163
672.5000	1.55711
673.0000	1.55325
673.5000	1.53324
674.0000	1.50572
674.5000	1.46603
675.0000	1.45593
675.5000	1.41555
676.0000	1.40458
676.5000	1.38678
677.0000	1.36081
677.5000	1.33669
678.0000	1.31248
678.5000	1.31279
679.0000	1.27482
679.5000	1.25279
680.0000	1.24469
680.5000	1.21897
681.0000	1.19629
681.5000	1.18572
682.0000	1.16542
682.5000	1.13792
683.0000	1.1191
683.5000	1.11902
684.0000	1.10422
684.5000	1.08484
685.0000	1.09693
685.5000	1.07654
686.0000	1.05466
686.5000	1.02502
687.0000	1.00173
687.5000	0.981967
688.0000	0.992509
688.5000	0.970157
689.0000	0.94539
689.5000	0.94097
690.0000	0.920473
690.5000	0.922406
691.0000	0.900475
691.5000	0.904176
692.0000	0.881992
692.5000	0.88666
693.0000	0.874388
693.5000	0.865078
694.0000	0.837424
694.5000	0.831374
695.0000	0.82288
695.5000	0.803226
696.0000	0.797318
696.5000	0.79517
697.0000	0.798956
697.5000	0.769551
698.0000	0.760895
698.5000	0.755072
699.0000	0.731935
699.5000	0.733066
700.0000	0.737709

##### Extended Information
[コメント情報]
試料名
コメント
測定者
所属
会社	関西大学

[データ情報]
作成日時	2025/03/25 14:28

データタイプ	等間隔データ
横軸	Wavelength [nm]
縦軸	Int.
スタート	450 nm
エンド	700 nm
データ間隔	0.5 nm
データ数	501     

[測定情報]
機種名	FP-8300
シリアル番号	C037361450
  Ex側フォルダ	なし
  Em側フォルダ	なし

付属品名	SCE-846
付属品シリアルNo.	C037361450

測定日時	2025/03/25 14:28

測定モード	蛍光
励起側バンド幅	5 nm
蛍光側バンド幅	5 nm
レスポンス	0.1 sec
感度	Very low
測定範囲	450 - 700 nm
データ取込間隔	0.5 nm
励起波長	450.0 nm
走査速度	500 nm/min
オートゲイン	Off
自動シャッタ制御	測定時のみ開く
光源	キセノンランプ
フィルタ	交換時にスキャンを停止する
ブランク補正	Off

