TITLE	
DATA TYPE	FLUORESCENCE SPECTRUM
ORIGIN	JASCO
OWNER	
DATE	25/05/13
TIME	17:22:14
SPECTROMETER/DATA SYSTEM	
LOCALE	1041
RESOLUTION	
DELTAX	0.5
XUNITS	NANOMETERS
YUNITS	INTENSITY
FIRSTX	  446.0000
LASTX	  700.0000
NPOINTS	     509
FIRSTY	   334.90115
MAXY	   334.90115
MINY	     1.03618
XYDATA
446.0000	334.901
446.5000	317.479
447.0000	290.458
447.5000	258.691
448.0000	225.955
448.5000	193.861
449.0000	166.603
449.5000	143.657
450.0000	125.671
450.5000	113.958
451.0000	106.366
451.5000	102.137
452.0000	100.535
452.5000	99.5453
453.0000	99.1875
453.5000	99.4396
454.0000	99.689
454.5000	99.4585
455.0000	99.1793
455.5000	98.4136
456.0000	97.7739
456.5000	96.6106
457.0000	95.5153
457.5000	94.3694
458.0000	92.7859
458.5000	91.2359
459.0000	89.5496
459.5000	87.616
460.0000	85.92
460.5000	84.2287
461.0000	82.283
461.5000	80.0231
462.0000	77.8174
462.5000	76.0958
463.0000	74.2898
463.5000	72.1844
464.0000	70.5851
464.5000	68.9324
465.0000	67.2637
465.5000	65.6542
466.0000	64.115
466.5000	62.6833
467.0000	61.3704
467.5000	60.2007
468.0000	59.3509
468.5000	58.7092
469.0000	57.9274
469.5000	57.2454
470.0000	57.0397
470.5000	56.5358
471.0000	56.5597
471.5000	56.9004
472.0000	57.2104
472.5000	57.6402
473.0000	58.1831
473.5000	59.0233
474.0000	60.0268
474.5000	60.9732
475.0000	62.0099
475.5000	63.4038
476.0000	64.6534
476.5000	65.8036
477.0000	67.1099
477.5000	68.1694
478.0000	69.3058
478.5000	70.4067
479.0000	71.3619
479.5000	72.458
480.0000	73.2469
480.5000	74.1777
481.0000	75.1065
481.5000	75.4496
482.0000	75.9445
482.5000	76.3493
483.0000	76.4794
483.5000	76.5121
484.0000	76.5502
484.5000	76.2843
485.0000	75.7854
485.5000	75.4409
486.0000	75.0489
486.5000	74.6196
487.0000	73.9954
487.5000	73.3418
488.0000	72.3849
488.5000	71.6009
489.0000	70.8332
489.5000	69.72
490.0000	68.482
490.5000	67.1724
491.0000	65.7385
491.5000	64.6902
492.0000	63.1743
492.5000	61.4355
493.0000	59.8973
493.5000	58.2853
494.0000	56.3034
494.5000	54.8764
495.0000	53.4293
495.5000	51.4399
496.0000	49.9084
496.5000	48.5502
497.0000	47.0133
497.5000	45.6268
498.0000	44.0615
498.5000	42.4523
499.0000	41.4071
499.5000	39.9805
500.0000	38.8643
500.5000	37.7814
501.0000	36.9922
501.5000	35.8615
502.0000	35.023
502.5000	34.4188
503.0000	33.5353
503.5000	32.8387
504.0000	32.2343
504.5000	31.7573
505.0000	31.185
505.5000	30.7971
506.0000	30.4063
506.5000	30.2877
507.0000	29.9955
507.5000	29.8038
508.0000	29.8726
508.5000	29.7465
509.0000	29.6884
509.5000	29.7191
510.0000	29.8337
510.5000	29.8286
511.0000	29.8962
511.5000	30.055
512.0000	30.058
512.5000	30.1616
513.0000	30.0997
513.5000	30.1947
514.0000	30.3566
514.5000	30.2652
515.0000	30.3332
515.5000	30.2118
516.0000	30.2221
516.5000	30.3753
517.0000	30.2121
517.5000	30.0507
518.0000	29.9783
518.5000	29.9417
519.0000	29.8683
519.5000	29.9281
520.0000	29.9512
520.5000	29.7552
521.0000	29.5687
521.5000	29.6704
522.0000	29.5896
522.5000	29.7044
523.0000	29.7116
523.5000	29.567
524.0000	29.4332
524.5000	29.3341
525.0000	29.3003
525.5000	29.2335
526.0000	29.0758
526.5000	28.95
527.0000	28.9003
527.5000	28.7093
528.0000	28.775
528.5000	28.734
529.0000	28.4845
529.5000	28.4269
530.0000	28.4546
530.5000	28.0069
531.0000	28
531.5000	27.8059
532.0000	27.7176
532.5000	27.6139
533.0000	27.4688
533.5000	27.2558
534.0000	27.1917
534.5000	26.9088
535.0000	26.7863
535.5000	26.4999
536.0000	26.3645
536.5000	26.2486
537.0000	26.0997
537.5000	25.9782
538.0000	25.8885
538.5000	25.7625
539.0000	25.5486
539.5000	25.3909
540.0000	25.2063
540.5000	24.7967
541.0000	24.6711
541.5000	24.598
542.0000	24.2958
542.5000	24.1438
543.0000	23.9019
543.5000	23.8566
544.0000	23.7572
544.5000	23.6254
545.0000	23.4371
545.5000	23.3468
546.0000	23.2271
546.5000	23.1098
547.0000	22.8266
547.5000	22.696
548.0000	22.6588
548.5000	22.5552
549.0000	22.4294
549.5000	22.3449
550.0000	22.2422
550.5000	22.0264
551.0000	21.9481
551.5000	21.8477
552.0000	21.6068
552.5000	21.6166
553.0000	21.4003
553.5000	21.3881
554.0000	21.2985
554.5000	21.0926
555.0000	20.8767
555.5000	20.8365
556.0000	20.6232
556.5000	20.5761
557.0000	20.5114
557.5000	20.3643
558.0000	20.2917
558.5000	20.1986
559.0000	20.1494
559.5000	19.8715
560.0000	19.7481
560.5000	19.7688
561.0000	19.5815
561.5000	19.4193
562.0000	19.2515
562.5000	19.0604
563.0000	18.8479
563.5000	18.9445
564.0000	18.9214
564.5000	18.7753
565.0000	18.5239
565.5000	18.3507
566.0000	18.2336
566.5000	18.1185
567.0000	17.8756
567.5000	17.6783
568.0000	17.5459
568.5000	17.4091
569.0000	17.2905
569.5000	17.1024
570.0000	17.1732
570.5000	16.9488
571.0000	16.7525
571.5000	16.7516
572.0000	16.5426
572.5000	16.3877
573.0000	16.1384
573.5000	16.0809
574.0000	16.0311
574.5000	15.9293
575.0000	15.7307
575.5000	15.4993
576.0000	15.428
576.5000	15.2525
577.0000	15.1733
577.5000	15.0762
578.0000	14.852
578.5000	14.7914
579.0000	14.6522
579.5000	14.4656
580.0000	14.395
580.5000	14.3453
581.0000	14.1013
581.5000	13.977
582.0000	13.9971
582.5000	13.9615
583.0000	13.7539
583.5000	13.4931
584.0000	13.3394
584.5000	13.3047
585.0000	13.276
585.5000	13.1983
586.0000	13.0463
586.5000	12.9708
587.0000	12.8768
587.5000	12.8109
588.0000	12.7081
588.5000	12.5168
589.0000	12.3174
589.5000	12.2644
590.0000	12.1355
590.5000	11.932
591.0000	12.0363
591.5000	11.9178
592.0000	11.7617
592.5000	11.7732
593.0000	11.6251
593.5000	11.4941
594.0000	11.4113
594.5000	11.3298
595.0000	11.2905
595.5000	11.0563
596.0000	10.9993
596.5000	11.0189
597.0000	10.8339
597.5000	10.7667
598.0000	10.7208
598.5000	10.591
599.0000	10.4498
599.5000	10.3506
600.0000	10.2628
600.5000	10.1951
601.0000	10.1422
601.5000	9.95619
602.0000	9.87539
602.5000	9.91431
603.0000	9.74089
603.5000	9.6558
604.0000	9.65517
604.5000	9.54752
605.0000	9.52772
605.5000	9.4656
606.0000	9.33304
606.5000	9.15565
607.0000	9.18412
607.5000	9.10387
608.0000	8.99617
608.5000	8.91919
609.0000	8.79312
609.5000	8.68953
610.0000	8.60228
610.5000	8.54352
611.0000	8.56272
611.5000	8.51955
612.0000	8.39152
612.5000	8.30441
613.0000	8.28217
613.5000	8.08765
614.0000	8.04122
614.5000	8.00586
615.0000	8.01138
615.5000	7.90412
616.0000	7.77774
616.5000	7.69635
617.0000	7.59516
617.5000	7.59732
618.0000	7.63949
618.5000	7.50063
619.0000	7.29945
619.5000	7.33297
620.0000	7.1954
620.5000	7.13012
621.0000	7.14347
621.5000	7.08548
622.0000	6.99142
622.5000	6.95681
623.0000	6.8392
623.5000	6.72209
624.0000	6.69823
624.5000	6.58106
625.0000	6.56294
625.5000	6.49092
626.0000	6.37427
626.5000	6.37315
627.0000	6.35033
627.5000	6.26253
628.0000	6.257
628.5000	6.11114
629.0000	6.04534
629.5000	5.99474
630.0000	5.96559
630.5000	5.97795
631.0000	5.81321
631.5000	5.73063
632.0000	5.72601
632.5000	5.68503
633.0000	5.60985
633.5000	5.51244
634.0000	5.47388
634.5000	5.47093
635.0000	5.45952
635.5000	5.32282
636.0000	5.21842
636.5000	5.13783
637.0000	5.00462
637.5000	4.98947
638.0000	5.05768
638.5000	4.98289
639.0000	4.85226
639.5000	4.83055
640.0000	4.83683
640.5000	4.78862
641.0000	4.69861
641.5000	4.62345
642.0000	4.56235
642.5000	4.56464
643.0000	4.52445
643.5000	4.56942
644.0000	4.44211
644.5000	4.32295
645.0000	4.26344
645.5000	4.22556
646.0000	4.19233
646.5000	4.17855
647.0000	4.12716
647.5000	4.04725
648.0000	4.0483
648.5000	3.99772
649.0000	3.96572
649.5000	3.9111
650.0000	3.78965
650.5000	3.80258
651.0000	3.78256
651.5000	3.78769
652.0000	3.67722
652.5000	3.65849
653.0000	3.60545
653.5000	3.61547
654.0000	3.58319
654.5000	3.49378
655.0000	3.43914
655.5000	3.38032
656.0000	3.42632
656.5000	3.40318
657.0000	3.28216
657.5000	3.29894
658.0000	3.22569
658.5000	3.17826
659.0000	3.15494
659.5000	3.10164
660.0000	3.06826
660.5000	3.07981
661.0000	2.96727
661.5000	2.90911
662.0000	2.91109
662.5000	2.89022
663.0000	2.88071
663.5000	2.82982
664.0000	2.81033
664.5000	2.79488
665.0000	2.73976
665.5000	2.7203
666.0000	2.72921
666.5000	2.65291
667.0000	2.61607
667.5000	2.55296
668.0000	2.45699
668.5000	2.45512
669.0000	2.39051
669.5000	2.41326
670.0000	2.40264
670.5000	2.40345
671.0000	2.35403
671.5000	2.30727
672.0000	2.28328
672.5000	2.28854
673.0000	2.24206
673.5000	2.20186
674.0000	2.21199
674.5000	2.17671
675.0000	2.10772
675.5000	2.04917
676.0000	2.07244
676.5000	2.10777
677.0000	2.02857
677.5000	2.01707
678.0000	1.95532
678.5000	1.96812
679.0000	1.93207
679.5000	1.8547
680.0000	1.88031
680.5000	1.85492
681.0000	1.83009
681.5000	1.79209
682.0000	1.74661
682.5000	1.74807
683.0000	1.66983
683.5000	1.67507
684.0000	1.69358
684.5000	1.65312
685.0000	1.64992
685.5000	1.58934
686.0000	1.55488
686.5000	1.57145
687.0000	1.53163
687.5000	1.51949
688.0000	1.44855
688.5000	1.4298
689.0000	1.44937
689.5000	1.43202
690.0000	1.38651
690.5000	1.38772
691.0000	1.37247
691.5000	1.38428
692.0000	1.32281
692.5000	1.33824
693.0000	1.30439
693.5000	1.30752
694.0000	1.29914
694.5000	1.25865
695.0000	1.25884
695.5000	1.20443
696.0000	1.20199
696.5000	1.22911
697.0000	1.19141
697.5000	1.12157
698.0000	1.13361
698.5000	1.10762
699.0000	1.07337
699.5000	1.14929
700.0000	1.03618

##### Extended Information
[コメント情報]
試料名
コメント
測定者
所属
会社	関西大学

[データ情報]
作成日時	2025/05/13 17:22

データタイプ	等間隔データ
横軸	Wavelength [nm]
縦軸	Int.
スタート	446 nm
エンド	700 nm
データ間隔	0.5 nm
データ数	509     

[測定情報]
機種名	FP-8300
シリアル番号	C037361450
  Ex側フォルダ	なし
  Em側フォルダ	なし

付属品名	SCE-846
付属品シリアルNo.	C037361450

測定日時	2025/05/13 17:22

測定モード	蛍光
励起側バンド幅	5 nm
蛍光側バンド幅	5 nm
レスポンス	0.1 sec
感度	Low
測定範囲	446 - 700 nm
データ取込間隔	0.5 nm
励起波長	446.0 nm
走査速度	500 nm/min
オートゲイン	Off
自動シャッタ制御	測定時のみ開く
光源	キセノンランプ
フィルタ	交換時にスキャンを停止する
ブランク補正	Off

