TITLE	
DATA TYPE	FLUORESCENCE SPECTRUM
ORIGIN	JASCO
OWNER	
DATE	25/03/31
TIME	12:12:05
SPECTROMETER/DATA SYSTEM	
LOCALE	1041
RESOLUTION	
DELTAX	0.5
XUNITS	NANOMETERS
YUNITS	INTENSITY
FIRSTX	  447.0000
LASTX	  700.0000
NPOINTS	     507
FIRSTY	   676.38544
MAXY	  1891.60986
MINY	     3.45304
XYDATA
447.0000	676.385
447.5000	724.553
448.0000	775.928
448.5000	832.742
449.0000	894.49
449.5000	962.407
450.0000	1036.65
450.5000	1113.49
451.0000	1193.85
451.5000	1277.52
452.0000	1361.86
452.5000	1442.24
453.0000	1518.26
453.5000	1588.04
454.0000	1652.15
454.5000	1708.61
455.0000	1760.19
455.5000	1801.4
456.0000	1834.24
456.5000	1858.57
457.0000	1875.99
457.5000	1886.41
458.0000	1891.61
458.5000	1890.27
459.0000	1881.02
459.5000	1866.22
460.0000	1848.42
460.5000	1826.25
461.0000	1801.65
461.5000	1772.53
462.0000	1742.09
462.5000	1708.49
463.0000	1670
463.5000	1631.7
464.0000	1593.5
464.5000	1553.09
465.0000	1511.92
465.5000	1469.46
466.0000	1428.4
466.5000	1388.02
467.0000	1345.75
467.5000	1305.42
468.0000	1267.51
468.5000	1228.59
469.0000	1192.4
469.5000	1159.31
470.0000	1126.63
470.5000	1095.07
471.0000	1065.42
471.5000	1039.74
472.0000	1015.5
472.5000	993.995
473.0000	977.566
473.5000	961.416
474.0000	948.971
474.5000	941.076
475.0000	934.598
475.5000	932.083
476.0000	932.685
476.5000	936.13
477.0000	942.352
477.5000	951.453
478.0000	964.682
478.5000	979.549
479.0000	996.906
479.5000	1015.82
480.0000	1036.63
480.5000	1057.02
481.0000	1079.03
481.5000	1102.6
482.0000	1125.55
482.5000	1147.08
483.0000	1167.46
483.5000	1186.27
484.0000	1204.61
484.5000	1223.13
485.0000	1238.51
485.5000	1251.39
486.0000	1261.79
486.5000	1270.08
487.0000	1276.11
487.5000	1278.54
488.0000	1280.93
488.5000	1281.44
489.0000	1276.85
489.5000	1269.35
490.0000	1259.15
490.5000	1245.2
491.0000	1229.14
491.5000	1209.72
492.0000	1189.08
492.5000	1164.4
493.0000	1136.67
493.5000	1108.76
494.0000	1078.44
494.5000	1046.88
495.0000	1014.72
495.5000	983.822
496.0000	950.779
496.5000	917.938
497.0000	885.81
497.5000	853.731
498.0000	822.398
498.5000	792.607
499.0000	763.812
499.5000	734.962
500.0000	707.914
500.5000	680.931
501.0000	655.543
501.5000	631.577
502.0000	609.213
502.5000	587.978
503.0000	567.107
503.5000	548.572
504.0000	531.171
504.5000	515.406
505.0000	499.726
505.5000	485.977
506.0000	473.08
506.5000	461.635
507.0000	451.143
507.5000	441.558
508.0000	432.575
508.5000	425.335
509.0000	418.829
509.5000	412.877
510.0000	407.231
510.5000	402.866
511.0000	398.779
511.5000	395.427
512.0000	393.208
512.5000	391.27
513.0000	389.563
513.5000	387.864
514.0000	386.974
514.5000	386.885
515.0000	386.699
515.5000	385.603
516.0000	385.924
516.5000	386.616
517.0000	387.63
517.5000	388.005
518.0000	388.785
518.5000	390.402
519.0000	391.247
519.5000	392.498
520.0000	393.055
520.5000	393.506
521.0000	394.259
521.5000	395.153
522.0000	395.854
522.5000	395.977
523.0000	396.928
523.5000	397.813
524.0000	397.428
524.5000	396.874
525.0000	397.234
525.5000	396.906
526.0000	396.557
526.5000	395.743
527.0000	395.087
527.5000	393.954
528.0000	392.982
528.5000	390.808
529.0000	388.789
529.5000	386.482
530.0000	384.251
530.5000	381.951
531.0000	378.644
531.5000	375.771
532.0000	373.005
532.5000	369.293
533.0000	366.111
533.5000	362.068
534.0000	358.116
534.5000	353.989
535.0000	350.13
535.5000	346.429
536.0000	342.166
536.5000	337.008
537.0000	332.616
537.5000	328.792
538.0000	324.47
538.5000	319.404
539.0000	314.468
539.5000	309.837
540.0000	305.696
540.5000	300.742
541.0000	296.239
541.5000	291.822
542.0000	287.617
542.5000	283.16
543.0000	279.388
543.5000	275.414
544.0000	271.335
544.5000	267.715
545.0000	263.973
545.5000	260.499
546.0000	256.36
546.5000	252.9
547.0000	249.279
547.5000	245.775
548.0000	242.801
548.5000	240.158
549.0000	237.463
549.5000	234.218
550.0000	231.413
550.5000	229.299
551.0000	226.227
551.5000	223.12
552.0000	221.218
552.5000	219.402
553.0000	217.043
553.5000	214.477
554.0000	211.916
554.5000	209.838
555.0000	208.349
555.5000	205.674
556.0000	204.153
556.5000	202.652
557.0000	200.687
557.5000	198.559
558.0000	196.356
558.5000	194.663
559.0000	192.831
559.5000	191.873
560.0000	190.202
560.5000	188.087
561.0000	186.435
561.5000	185.231
562.0000	183.66
562.5000	181.749
563.0000	179.996
563.5000	178.425
564.0000	176.25
564.5000	175.181
565.0000	173.764
565.5000	171.816
566.0000	169.989
566.5000	168.073
567.0000	166.526
567.5000	165.068
568.0000	163.044
568.5000	161.988
569.0000	159.935
569.5000	158.253
570.0000	156.225
570.5000	154.301
571.0000	151.978
571.5000	150.509
572.0000	149.156
572.5000	147.399
573.0000	145.568
573.5000	143.817
574.0000	141.481
574.5000	139.796
575.0000	138.246
575.5000	136.321
576.0000	135.097
576.5000	132.775
577.0000	131.045
577.5000	129.657
578.0000	128.117
578.5000	126.014
579.0000	124.12
579.5000	122.347
580.0000	120.773
580.5000	118.953
581.0000	117.305
581.5000	116.088
582.0000	114.112
582.5000	112.692
583.0000	111.129
583.5000	109.632
584.0000	107.955
584.5000	106.045
585.0000	104.848
585.5000	103.224
586.0000	101.896
586.5000	100.481
587.0000	99.4271
587.5000	97.8924
588.0000	96.2164
588.5000	95.072
589.0000	93.9217
589.5000	92.5437
590.0000	91.1217
590.5000	89.6854
591.0000	88.3653
591.5000	87.1528
592.0000	86.222
592.5000	85.0264
593.0000	83.8335
593.5000	82.5163
594.0000	81.4556
594.5000	80.2765
595.0000	79.0616
595.5000	78.048
596.0000	77.0279
596.5000	76.0805
597.0000	75.1201
597.5000	74.1022
598.0000	73.0318
598.5000	72.2323
599.0000	71.0411
599.5000	69.9681
600.0000	69.278
600.5000	68.2449
601.0000	67.2315
601.5000	66.4635
602.0000	65.6528
602.5000	65.0149
603.0000	63.9431
603.5000	63.0187
604.0000	62.2136
604.5000	61.5835
605.0000	60.7184
605.5000	59.8743
606.0000	59.1545
606.5000	58.4949
607.0000	57.7516
607.5000	56.9614
608.0000	56.0897
608.5000	55.3259
609.0000	54.6122
609.5000	54.0034
610.0000	53.3575
610.5000	52.7011
611.0000	51.823
611.5000	51.076
612.0000	50.416
612.5000	49.7659
613.0000	49.0065
613.5000	48.5064
614.0000	47.9494
614.5000	47.3535
615.0000	46.4939
615.5000	45.7682
616.0000	45.0484
616.5000	44.5941
617.0000	44.1947
617.5000	43.5786
618.0000	43.1122
618.5000	42.3603
619.0000	41.6193
619.5000	40.8211
620.0000	40.4882
620.5000	40.1085
621.0000	39.6481
621.5000	38.7117
622.0000	38.2078
622.5000	37.5896
623.0000	37.2637
623.5000	36.657
624.0000	36.231
624.5000	35.6467
625.0000	35.1807
625.5000	34.7452
626.0000	34.3491
626.5000	33.7213
627.0000	33.1042
627.5000	32.7153
628.0000	32.4403
628.5000	31.8263
629.0000	31.1655
629.5000	30.7429
630.0000	30.4499
630.5000	30.0117
631.0000	29.6642
631.5000	29.216
632.0000	28.6362
632.5000	28.2858
633.0000	27.8522
633.5000	27.3193
634.0000	26.9872
634.5000	26.6099
635.0000	26.0972
635.5000	25.6075
636.0000	25.2908
636.5000	25.032
637.0000	24.6179
637.5000	24.1307
638.0000	23.978
638.5000	23.658
639.0000	23.3398
639.5000	22.9987
640.0000	22.5537
640.5000	22.0976
641.0000	21.9593
641.5000	21.4513
642.0000	21.2477
642.5000	20.9742
643.0000	20.6132
643.5000	20.2399
644.0000	19.8519
644.5000	19.6031
645.0000	19.2222
645.5000	19.1552
646.0000	18.7567
646.5000	18.4704
647.0000	18.194
647.5000	17.841
648.0000	17.6357
648.5000	17.3285
649.0000	17.1377
649.5000	16.8972
650.0000	16.7066
650.5000	16.3175
651.0000	16.0955
651.5000	15.9318
652.0000	15.6696
652.5000	15.3018
653.0000	14.9482
653.5000	14.9291
654.0000	14.6439
654.5000	14.378
655.0000	14.2018
655.5000	13.9361
656.0000	13.8081
656.5000	13.5144
657.0000	13.279
657.5000	13.0789
658.0000	12.9282
658.5000	12.8348
659.0000	12.6304
659.5000	12.4408
660.0000	12.1562
660.5000	11.9667
661.0000	11.701
661.5000	11.5266
662.0000	11.3462
662.5000	11.1612
663.0000	11.1
663.5000	10.8332
664.0000	10.6071
664.5000	10.5396
665.0000	10.4013
665.5000	10.2049
666.0000	10.0169
666.5000	9.84182
667.0000	9.79292
667.5000	9.75493
668.0000	9.38019
668.5000	9.31173
669.0000	9.17052
669.5000	8.92923
670.0000	8.80594
670.5000	8.75725
671.0000	8.59876
671.5000	8.52322
672.0000	8.37005
672.5000	8.24769
673.0000	8.15838
673.5000	8.07341
674.0000	7.85069
674.5000	7.69329
675.0000	7.54325
675.5000	7.46316
676.0000	7.3514
676.5000	7.26591
677.0000	7.09807
677.5000	7.03206
678.0000	6.84138
678.5000	6.79477
679.0000	6.65158
679.5000	6.58525
680.0000	6.56181
680.5000	6.39946
681.0000	6.29719
681.5000	6.24993
682.0000	6.13294
682.5000	6.05839
683.0000	5.88788
683.5000	5.77901
684.0000	5.71264
684.5000	5.66079
685.0000	5.55885
685.5000	5.48651
686.0000	5.39011
686.5000	5.24072
687.0000	5.17865
687.5000	5.11421
688.0000	5.03208
688.5000	4.97534
689.0000	4.87715
689.5000	4.83054
690.0000	4.76337
690.5000	4.68328
691.0000	4.48706
691.5000	4.40847
692.0000	4.36956
692.5000	4.31118
693.0000	4.3493
693.5000	4.29024
694.0000	4.15322
694.5000	4.06267
695.0000	4.06341
695.5000	3.98909
696.0000	3.90626
696.5000	3.81131
697.0000	3.81395
697.5000	3.84119
698.0000	3.70478
698.5000	3.62169
699.0000	3.59104
699.5000	3.53694
700.0000	3.45304

##### Extended Information
[コメント情報]
試料名
コメント
測定者
所属
会社	関西大学

[データ情報]
作成日時	2025/03/31 12:12

データタイプ	等間隔データ
横軸	Wavelength [nm]
縦軸	Int.
スタート	447 nm
エンド	700 nm
データ間隔	0.5 nm
データ数	507     

[測定情報]
機種名	FP-8300
シリアル番号	C037361450
  Ex側フォルダ	なし
  Em側フォルダ	なし

付属品名	SCE-846
付属品シリアルNo.	C037361450

測定日時	2025/03/31 12:12

測定モード	蛍光
励起側バンド幅	5 nm
蛍光側バンド幅	5 nm
レスポンス	0.1 sec
感度	Low
測定範囲	447 - 700 nm
データ取込間隔	0.5 nm
励起波長	447.0 nm
走査速度	500 nm/min
オートゲイン	Off
自動シャッタ制御	測定時のみ開く
光源	キセノンランプ
フィルタ	交換時にスキャンを停止する
ブランク補正	Off

