TITLE	
DATA TYPE	FLUORESCENCE SPECTRUM
ORIGIN	JASCO
OWNER	
DATE	25/04/22
TIME	17:09:32
SPECTROMETER/DATA SYSTEM	
LOCALE	1041
RESOLUTION	
DELTAX	0.5
XUNITS	NANOMETERS
YUNITS	INTENSITY
FIRSTX	  446.0000
LASTX	  700.0000
NPOINTS	     509
FIRSTY	   168.24751
MAXY	   168.24751
MINY	     1.33610
XYDATA
446.0000	168.248
446.5000	157.535
447.0000	145.118
447.5000	132.104
448.0000	119.788
448.5000	109.376
449.0000	101.537
449.5000	96.1142
450.0000	93.0967
450.5000	91.7868
451.0000	91.4859
451.5000	92.1952
452.0000	92.8587
452.5000	93.7592
453.0000	94.3583
453.5000	95.0131
454.0000	95.1538
454.5000	95.169
455.0000	94.978
455.5000	94.315
456.0000	93.7484
456.5000	92.782
457.0000	91.7235
457.5000	90.5669
458.0000	88.9452
458.5000	87.0118
459.0000	85.7111
459.5000	84.0474
460.0000	81.9343
460.5000	80.1632
461.0000	78.4414
461.5000	76.4977
462.0000	74.4582
462.5000	72.5252
463.0000	70.5856
463.5000	68.7258
464.0000	67.2092
464.5000	65.3957
465.0000	63.586
465.5000	61.7124
466.0000	60.2978
466.5000	58.9696
467.0000	57.6387
467.5000	56.572
468.0000	55.6707
468.5000	54.6898
469.0000	53.9027
469.5000	53.3173
470.0000	52.8292
470.5000	52.3743
471.0000	52.3353
471.5000	52.2402
472.0000	52.265
472.5000	52.6764
473.0000	53.0276
473.5000	53.6192
474.0000	54.4543
474.5000	55.1468
475.0000	55.8732
475.5000	56.9865
476.0000	57.9126
476.5000	58.7071
477.0000	59.3885
477.5000	60.4406
478.0000	61.5086
478.5000	62.1582
479.0000	63.143
479.5000	63.7895
480.0000	64.3698
480.5000	64.8965
481.0000	65.585
481.5000	66.0093
482.0000	66.2777
482.5000	66.1404
483.0000	66.1568
483.5000	66.2237
484.0000	65.9571
484.5000	65.6904
485.0000	65.5596
485.5000	65.0173
486.0000	64.5509
486.5000	63.9604
487.0000	63.453
487.5000	62.7097
488.0000	61.836
488.5000	61.103
489.0000	60.0409
489.5000	58.9916
490.0000	58.0946
490.5000	56.9941
491.0000	55.7752
491.5000	54.1743
492.0000	52.6669
492.5000	51.3196
493.0000	50.0518
493.5000	48.8229
494.0000	47.1673
494.5000	45.7791
495.0000	44.3265
495.5000	42.8026
496.0000	41.2982
496.5000	39.7702
497.0000	38.3811
497.5000	37.289
498.0000	35.9762
498.5000	34.7726
499.0000	33.6473
499.5000	32.5779
500.0000	31.6689
500.5000	30.7566
501.0000	29.8067
501.5000	29.0918
502.0000	28.3343
502.5000	27.4105
503.0000	26.8522
503.5000	26.3085
504.0000	25.9066
504.5000	25.3959
505.0000	25.0294
505.5000	24.7854
506.0000	24.4259
506.5000	24.1936
507.0000	23.781
507.5000	23.6629
508.0000	23.6541
508.5000	23.5649
509.0000	23.5468
509.5000	23.4552
510.0000	23.4393
510.5000	23.4216
511.0000	23.3606
511.5000	23.4198
512.0000	23.3317
512.5000	23.2518
513.0000	23.3716
513.5000	23.1783
514.0000	23.1055
514.5000	23.1101
515.0000	23.1138
515.5000	23.0451
516.0000	22.9231
516.5000	22.996
517.0000	22.9868
517.5000	22.8752
518.0000	22.6851
518.5000	22.6098
519.0000	22.5897
519.5000	22.5093
520.0000	22.4327
520.5000	22.1877
521.0000	22.1752
521.5000	22.0612
522.0000	22.0928
522.5000	21.9213
523.0000	21.979
523.5000	21.8933
524.0000	21.6859
524.5000	21.6867
525.0000	21.6809
525.5000	21.6199
526.0000	21.4809
526.5000	21.3947
527.0000	21.3493
527.5000	21.1438
528.0000	21.0927
528.5000	21.0284
529.0000	20.9219
529.5000	20.9906
530.0000	20.8859
530.5000	20.7684
531.0000	20.5483
531.5000	20.4735
532.0000	20.4175
532.5000	20.2814
533.0000	20.0283
533.5000	20.0697
534.0000	19.9957
534.5000	19.9713
535.0000	19.811
535.5000	19.6868
536.0000	19.5986
536.5000	19.4181
537.0000	19.244
537.5000	19.2262
538.0000	19.1688
538.5000	19.023
539.0000	18.8578
539.5000	18.741
540.0000	18.7149
540.5000	18.5595
541.0000	18.5272
541.5000	18.3808
542.0000	18.2227
542.5000	18.2834
543.0000	18.2056
543.5000	18.1177
544.0000	18.0253
544.5000	17.8302
545.0000	17.8093
545.5000	17.6594
546.0000	17.5827
546.5000	17.5542
547.0000	17.6377
547.5000	17.5955
548.0000	17.3804
548.5000	17.2813
549.0000	17.2552
549.5000	17.2014
550.0000	17.0831
550.5000	17.1159
551.0000	17.0478
551.5000	16.9081
552.0000	16.9462
552.5000	16.8311
553.0000	16.8687
553.5000	16.8525
554.0000	16.7193
554.5000	16.6671
555.0000	16.7072
555.5000	16.6473
556.0000	16.592
556.5000	16.4531
557.0000	16.3335
557.5000	16.3235
558.0000	16.2457
558.5000	16.1815
559.0000	16.1613
559.5000	16.0762
560.0000	15.9184
560.5000	15.9264
561.0000	15.8595
561.5000	15.7023
562.0000	15.6584
562.5000	15.6544
563.0000	15.609
563.5000	15.5453
564.0000	15.4745
564.5000	15.3747
565.0000	15.1562
565.5000	15.0899
566.0000	15.1774
566.5000	14.9643
567.0000	14.79
567.5000	14.935
568.0000	14.9169
568.5000	14.7589
569.0000	14.6817
569.5000	14.4908
570.0000	14.5265
570.5000	14.4841
571.0000	14.3459
571.5000	14.1541
572.0000	14.1848
572.5000	14.1545
573.0000	14.2568
573.5000	14.0441
574.0000	13.8661
574.5000	13.7687
575.0000	13.5494
575.5000	13.5765
576.0000	13.4081
576.5000	13.2888
577.0000	13.3683
577.5000	13.2651
578.0000	13.1629
578.5000	13.0892
579.0000	12.9911
579.5000	12.9619
580.0000	12.8882
580.5000	12.7485
581.0000	12.6228
581.5000	12.626
582.0000	12.5939
582.5000	12.5018
583.0000	12.3856
583.5000	12.234
584.0000	12.1471
584.5000	12.2776
585.0000	12.2051
585.5000	12.1033
586.0000	11.9294
586.5000	11.9148
587.0000	11.8867
587.5000	11.7773
588.0000	11.6361
588.5000	11.6432
589.0000	11.6103
589.5000	11.4748
590.0000	11.3631
590.5000	11.2957
591.0000	11.317
591.5000	11.2484
592.0000	11.0225
592.5000	11.0628
593.0000	10.9855
593.5000	10.8635
594.0000	10.7536
594.5000	10.7176
595.0000	10.759
595.5000	10.5618
596.0000	10.5484
596.5000	10.534
597.0000	10.3383
597.5000	10.3193
598.0000	10.2677
598.5000	10.1295
599.0000	10.1853
599.5000	10.1378
600.0000	10.0041
600.5000	9.94737
601.0000	9.81404
601.5000	9.75843
602.0000	9.65823
602.5000	9.63672
603.0000	9.47622
603.5000	9.40004
604.0000	9.34438
604.5000	9.29716
605.0000	9.23547
605.5000	9.20354
606.0000	9.06835
606.5000	8.96312
607.0000	8.92435
607.5000	8.91974
608.0000	8.85334
608.5000	8.80394
609.0000	8.72294
609.5000	8.53739
610.0000	8.51507
610.5000	8.52947
611.0000	8.36676
611.5000	8.30673
612.0000	8.35497
612.5000	8.22773
613.0000	8.10186
613.5000	8.07051
614.0000	7.97904
614.5000	7.90492
615.0000	7.8778
615.5000	7.77167
616.0000	7.79104
616.5000	7.64145
617.0000	7.5334
617.5000	7.42898
618.0000	7.37953
618.5000	7.40304
619.0000	7.30164
619.5000	7.24473
620.0000	7.13696
620.5000	7.1022
621.0000	7.07364
621.5000	7.02482
622.0000	6.94163
622.5000	6.82261
623.0000	6.74476
623.5000	6.67782
624.0000	6.70057
624.5000	6.68422
625.0000	6.57046
625.5000	6.5153
626.0000	6.48568
626.5000	6.30467
627.0000	6.32481
627.5000	6.32694
628.0000	6.24911
628.5000	6.14411
629.0000	6.12744
629.5000	6.19006
630.0000	6.07996
630.5000	5.96385
631.0000	5.9483
631.5000	5.88386
632.0000	5.71087
632.5000	5.65436
633.0000	5.72145
633.5000	5.6933
634.0000	5.55949
634.5000	5.52431
635.0000	5.49443
635.5000	5.37526
636.0000	5.36585
636.5000	5.35345
637.0000	5.2393
637.5000	5.22902
638.0000	5.17928
638.5000	5.10208
639.0000	5.08946
639.5000	5.02158
640.0000	5.04359
640.5000	4.95104
641.0000	4.87825
641.5000	4.86118
642.0000	4.88389
642.5000	4.79894
643.0000	4.78981
643.5000	4.75198
644.0000	4.64523
644.5000	4.59938
645.0000	4.54471
645.5000	4.49443
646.0000	4.44961
646.5000	4.4559
647.0000	4.42309
647.5000	4.36287
648.0000	4.28683
648.5000	4.24456
649.0000	4.15592
649.5000	4.09761
650.0000	4.10173
650.5000	4.10135
651.0000	3.99812
651.5000	3.95442
652.0000	3.93335
652.5000	3.86904
653.0000	3.87484
653.5000	3.8598
654.0000	3.81388
654.5000	3.72813
655.0000	3.65244
655.5000	3.65833
656.0000	3.63941
656.5000	3.57572
657.0000	3.50068
657.5000	3.47935
658.0000	3.45803
658.5000	3.3438
659.0000	3.38639
659.5000	3.35492
660.0000	3.31992
660.5000	3.27191
661.0000	3.2491
661.5000	3.20261
662.0000	3.18228
662.5000	3.13335
663.0000	3.15029
663.5000	3.10811
664.0000	3.04326
664.5000	3.01829
665.0000	2.99529
665.5000	2.91234
666.0000	2.90157
666.5000	2.87982
667.0000	2.80782
667.5000	2.80629
668.0000	2.77622
668.5000	2.7955
669.0000	2.71763
669.5000	2.66693
670.0000	2.67194
670.5000	2.56793
671.0000	2.53967
671.5000	2.53176
672.0000	2.49571
672.5000	2.52543
673.0000	2.48429
673.5000	2.45204
674.0000	2.4569
674.5000	2.43071
675.0000	2.38985
675.5000	2.38272
676.0000	2.3911
676.5000	2.29228
677.0000	2.236
677.5000	2.21654
678.0000	2.24604
678.5000	2.1945
679.0000	2.11761
679.5000	2.13601
680.0000	2.08396
680.5000	2.10795
681.0000	2.07181
681.5000	2.0339
682.0000	2.01709
682.5000	1.99109
683.0000	1.97557
683.5000	1.94326
684.0000	1.88339
684.5000	1.93022
685.0000	1.90262
685.5000	1.81899
686.0000	1.8633
686.5000	1.80464
687.0000	1.76547
687.5000	1.75409
688.0000	1.75239
688.5000	1.72619
689.0000	1.67119
689.5000	1.68857
690.0000	1.66152
690.5000	1.61221
691.0000	1.61828
691.5000	1.61544
692.0000	1.58833
692.5000	1.57631
693.0000	1.5723
693.5000	1.50754
694.0000	1.50745
694.5000	1.48988
695.0000	1.47665
695.5000	1.4824
696.0000	1.47627
696.5000	1.47588
697.0000	1.4242
697.5000	1.37369
698.0000	1.34164
698.5000	1.33847
699.0000	1.34613
699.5000	1.38155
700.0000	1.3361

##### Extended Information
[コメント情報]
試料名
コメント
測定者
所属
会社	関西大学

[データ情報]
作成日時	2025/04/22 17:09

データタイプ	等間隔データ
横軸	Wavelength [nm]
縦軸	Int.
スタート	446 nm
エンド	700 nm
データ間隔	0.5 nm
データ数	509     

[測定情報]
機種名	FP-8300
シリアル番号	C037361450
  Ex側フォルダ	なし
  Em側フォルダ	なし

付属品名	SCE-846
付属品シリアルNo.	C037361450

測定日時	2025/04/22 17:09

測定モード	蛍光
励起側バンド幅	5 nm
蛍光側バンド幅	5 nm
レスポンス	0.1 sec
感度	Low
測定範囲	446 - 700 nm
データ取込間隔	0.5 nm
励起波長	446.0 nm
走査速度	500 nm/min
オートゲイン	Off
自動シャッタ制御	測定時のみ開く
光源	キセノンランプ
フィルタ	交換時にスキャンを停止する
ブランク補正	Off

