TITLE	
DATA TYPE	FLUORESCENCE SPECTRUM
ORIGIN	JASCO
OWNER	
DATE	25/04/22
TIME	16:36:26
SPECTROMETER/DATA SYSTEM	
LOCALE	1041
RESOLUTION	
DELTAX	0.5
XUNITS	NANOMETERS
YUNITS	INTENSITY
FIRSTX	  446.0000
LASTX	  700.0000
NPOINTS	     509
FIRSTY	   185.24298
MAXY	   185.24298
MINY	     1.34483
XYDATA
446.0000	185.243
446.5000	170.38
447.0000	154.507
447.5000	138.896
448.0000	124.565
448.5000	111.897
449.0000	102.69
449.5000	96.0663
450.0000	91.5249
450.5000	89.9131
451.0000	89.3544
451.5000	89.5273
452.0000	89.9928
452.5000	90.8118
453.0000	91.2401
453.5000	91.8191
454.0000	92.4762
454.5000	92.5497
455.0000	92.0746
455.5000	91.3915
456.0000	90.9841
456.5000	90.4635
457.0000	89.5489
457.5000	88.1683
458.0000	86.7421
458.5000	85.3208
459.0000	83.661
459.5000	82.1226
460.0000	80.5049
460.5000	78.3089
461.0000	76.377
461.5000	74.6053
462.0000	72.6109
462.5000	71.0404
463.0000	69.3925
463.5000	67.467
464.0000	65.652
464.5000	63.9203
465.0000	62.3366
465.5000	61.0109
466.0000	59.5378
466.5000	58.1804
467.0000	56.9215
467.5000	55.5082
468.0000	54.5681
468.5000	53.8288
469.0000	53.0835
469.5000	52.3432
470.0000	52.1067
470.5000	51.9219
471.0000	51.5796
471.5000	51.5679
472.0000	51.8686
472.5000	52.1911
473.0000	52.4142
473.5000	53.2559
474.0000	54.1137
474.5000	54.8746
475.0000	55.515
475.5000	56.2261
476.0000	57.1618
476.5000	58.117
477.0000	59.1735
477.5000	60.1021
478.0000	60.9418
478.5000	62.0003
479.0000	62.7161
479.5000	63.2306
480.0000	64.0005
480.5000	64.8636
481.0000	65.2979
481.5000	65.485
482.0000	65.9428
482.5000	66.2099
483.0000	66.2874
483.5000	66.046
484.0000	65.5927
484.5000	65.6117
485.0000	65.6381
485.5000	64.9534
486.0000	64.4472
486.5000	63.9484
487.0000	63.2993
487.5000	62.5903
488.0000	61.9287
488.5000	61.3196
489.0000	60.3296
489.5000	59.1918
490.0000	58.2352
490.5000	57.1418
491.0000	55.8495
491.5000	54.6951
492.0000	53.2783
492.5000	51.9523
493.0000	50.687
493.5000	49.4613
494.0000	47.8771
494.5000	46.4257
495.0000	44.7845
495.5000	43.3546
496.0000	42.1205
496.5000	40.8191
497.0000	39.3893
497.5000	38.0067
498.0000	36.7375
498.5000	35.6807
499.0000	34.6521
499.5000	33.7751
500.0000	32.5036
500.5000	31.5845
501.0000	30.6283
501.5000	29.6705
502.0000	28.9255
502.5000	28.3424
503.0000	27.7111
503.5000	27.2114
504.0000	26.6486
504.5000	26.1272
505.0000	25.8178
505.5000	25.4152
506.0000	25.1083
506.5000	24.9153
507.0000	24.7796
507.5000	24.7059
508.0000	24.581
508.5000	24.4656
509.0000	24.321
509.5000	24.43
510.0000	24.4601
510.5000	24.5117
511.0000	24.5557
511.5000	24.1462
512.0000	24.217
512.5000	24.4743
513.0000	24.4236
513.5000	24.2836
514.0000	24.2762
514.5000	24.1139
515.0000	24.1915
515.5000	24.1011
516.0000	23.9695
516.5000	23.8956
517.0000	24.026
517.5000	24.0331
518.0000	23.8086
518.5000	23.7098
519.0000	23.677
519.5000	23.5831
520.0000	23.5744
520.5000	23.5469
521.0000	23.5006
521.5000	23.4331
522.0000	23.2682
522.5000	23.1233
523.0000	23.2073
523.5000	23.1562
524.0000	23.0887
524.5000	22.7577
525.0000	22.8124
525.5000	22.7594
526.0000	22.6492
526.5000	22.5396
527.0000	22.5872
527.5000	22.5573
528.0000	22.402
528.5000	22.3005
529.0000	22.0944
529.5000	22.1002
530.0000	21.8906
530.5000	21.8629
531.0000	21.9527
531.5000	21.6572
532.0000	21.4541
532.5000	21.254
533.0000	21.3889
533.5000	21.2274
534.0000	21.1646
534.5000	21.2167
535.0000	20.9862
535.5000	20.9023
536.0000	20.7722
536.5000	20.5323
537.0000	20.4747
537.5000	20.4458
538.0000	20.1476
538.5000	19.9627
539.0000	20.0324
539.5000	19.9299
540.0000	19.6879
540.5000	19.5037
541.0000	19.3334
541.5000	19.4012
542.0000	19.2638
542.5000	19.1959
543.0000	19.1601
543.5000	19.0176
544.0000	18.8335
544.5000	18.7195
545.0000	18.7544
545.5000	18.5894
546.0000	18.5542
546.5000	18.5178
547.0000	18.3843
547.5000	18.1655
548.0000	18.0846
548.5000	18.1773
549.0000	18.1065
549.5000	18.049
550.0000	18.0113
550.5000	17.8115
551.0000	17.8273
551.5000	17.8175
552.0000	17.7006
552.5000	17.5804
553.0000	17.5058
553.5000	17.4646
554.0000	17.4744
554.5000	17.4343
555.0000	17.3239
555.5000	17.334
556.0000	17.2179
556.5000	17.0169
557.0000	17.0135
557.5000	16.9569
558.0000	16.8055
558.5000	16.6063
559.0000	16.7263
559.5000	16.7317
560.0000	16.5366
560.5000	16.4684
561.0000	16.4434
561.5000	16.5074
562.0000	16.3837
562.5000	16.1677
563.0000	16.2299
563.5000	15.9816
564.0000	15.8872
564.5000	15.7977
565.0000	15.7828
565.5000	15.7841
566.0000	15.6477
566.5000	15.4582
567.0000	15.4705
567.5000	15.3375
568.0000	15.2595
568.5000	15.2938
569.0000	15.2096
569.5000	14.9849
570.0000	14.9526
570.5000	14.8915
571.0000	14.7476
571.5000	14.6312
572.0000	14.5762
572.5000	14.4718
573.0000	14.318
573.5000	14.255
574.0000	14.2836
574.5000	14.2549
575.0000	14.0256
575.5000	14.0254
576.0000	13.866
576.5000	13.8254
577.0000	13.7949
577.5000	13.7052
578.0000	13.6334
578.5000	13.4983
579.0000	13.3468
579.5000	13.3522
580.0000	13.2363
580.5000	13.2343
581.0000	13.0453
581.5000	12.9978
582.0000	12.9642
582.5000	12.8232
583.0000	12.791
583.5000	12.6562
584.0000	12.5347
584.5000	12.4315
585.0000	12.266
585.5000	12.3716
586.0000	12.2629
586.5000	12.1402
587.0000	12.1318
587.5000	11.9963
588.0000	11.8676
588.5000	11.8048
589.0000	11.702
589.5000	11.7708
590.0000	11.7114
590.5000	11.559
591.0000	11.4228
591.5000	11.3595
592.0000	11.2616
592.5000	11.2452
593.0000	11.2203
593.5000	11.1641
594.0000	10.972
594.5000	10.9652
595.0000	10.8343
595.5000	10.7722
596.0000	10.8004
596.5000	10.7172
597.0000	10.5148
597.5000	10.5216
598.0000	10.4865
598.5000	10.3868
599.0000	10.3372
599.5000	10.2601
600.0000	10.0919
600.5000	10.057
601.0000	9.94968
601.5000	9.86112
602.0000	9.85826
602.5000	9.76671
603.0000	9.70274
603.5000	9.66405
604.0000	9.62697
604.5000	9.47809
605.0000	9.38922
605.5000	9.41872
606.0000	9.3583
606.5000	9.18622
607.0000	9.07212
607.5000	9.04179
608.0000	8.94864
608.5000	8.85472
609.0000	8.78189
609.5000	8.68487
610.0000	8.62326
610.5000	8.5199
611.0000	8.51053
611.5000	8.54238
612.0000	8.48461
612.5000	8.3885
613.0000	8.28072
613.5000	8.1766
614.0000	8.16229
614.5000	8.04509
615.0000	8.00539
615.5000	7.92311
616.0000	7.9478
616.5000	7.84065
617.0000	7.75481
617.5000	7.71919
618.0000	7.6659
618.5000	7.55109
619.0000	7.4899
619.5000	7.46386
620.0000	7.31181
620.5000	7.24248
621.0000	7.08968
621.5000	7.04719
622.0000	7.07561
622.5000	6.89306
623.0000	6.90705
623.5000	6.88914
624.0000	6.80791
624.5000	6.80679
625.0000	6.71272
625.5000	6.71668
626.0000	6.633
626.5000	6.49633
627.0000	6.44196
627.5000	6.45472
628.0000	6.38411
628.5000	6.37957
629.0000	6.22957
629.5000	6.19608
630.0000	6.14152
630.5000	6.06841
631.0000	6.03185
631.5000	5.98323
632.0000	5.94711
632.5000	5.8693
633.0000	5.73383
633.5000	5.72734
634.0000	5.68627
634.5000	5.69471
635.0000	5.58819
635.5000	5.52165
636.0000	5.48828
636.5000	5.46031
637.0000	5.39038
637.5000	5.36234
638.0000	5.28041
638.5000	5.30663
639.0000	5.22386
639.5000	5.21646
640.0000	5.10565
640.5000	5.07274
641.0000	4.98111
641.5000	4.94984
642.0000	4.92135
642.5000	4.93084
643.0000	4.8526
643.5000	4.72501
644.0000	4.66005
644.5000	4.62501
645.0000	4.59852
645.5000	4.58318
646.0000	4.59667
646.5000	4.54006
647.0000	4.44507
647.5000	4.41815
648.0000	4.44325
648.5000	4.34518
649.0000	4.24253
649.5000	4.23934
650.0000	4.25568
650.5000	4.18263
651.0000	4.13763
651.5000	4.14071
652.0000	4.10882
652.5000	4.06765
653.0000	3.88933
653.5000	3.84475
654.0000	3.82971
654.5000	3.81777
655.0000	3.8159
655.5000	3.80274
656.0000	3.72866
656.5000	3.68442
657.0000	3.68788
657.5000	3.62214
658.0000	3.64083
658.5000	3.60093
659.0000	3.46157
659.5000	3.39612
660.0000	3.38497
660.5000	3.335
661.0000	3.30103
661.5000	3.31143
662.0000	3.24439
662.5000	3.26954
663.0000	3.22365
663.5000	3.22421
664.0000	3.19444
664.5000	3.14984
665.0000	3.06946
665.5000	3.02742
666.0000	2.9569
666.5000	3.01178
667.0000	2.93648
667.5000	2.88204
668.0000	2.84116
668.5000	2.82901
669.0000	2.79406
669.5000	2.77163
670.0000	2.75061
670.5000	2.70066
671.0000	2.69772
671.5000	2.63146
672.0000	2.67607
672.5000	2.62529
673.0000	2.55557
673.5000	2.57919
674.0000	2.52882
674.5000	2.46271
675.0000	2.44815
675.5000	2.41385
676.0000	2.31104
676.5000	2.30715
677.0000	2.32935
677.5000	2.31845
678.0000	2.27723
678.5000	2.22825
679.0000	2.1921
679.5000	2.20846
680.0000	2.18334
680.5000	2.14064
681.0000	2.12028
681.5000	2.10285
682.0000	2.09604
682.5000	2.08832
683.0000	1.98037
683.5000	1.99723
684.0000	1.95816
684.5000	1.97251
685.0000	1.9674
685.5000	1.86337
686.0000	1.85522
686.5000	1.87834
687.0000	1.80753
687.5000	1.76404
688.0000	1.7855
688.5000	1.74691
689.0000	1.74298
689.5000	1.74639
690.0000	1.72875
690.5000	1.68527
691.0000	1.63375
691.5000	1.64669
692.0000	1.65253
692.5000	1.5873
693.0000	1.58566
693.5000	1.56426
694.0000	1.5289
694.5000	1.53689
695.0000	1.51372
695.5000	1.49018
696.0000	1.47898
696.5000	1.46466
697.0000	1.45885
697.5000	1.44796
698.0000	1.38291
698.5000	1.42237
699.0000	1.41007
699.5000	1.36853
700.0000	1.34483

##### Extended Information
[コメント情報]
試料名
コメント
測定者
所属
会社	関西大学

[データ情報]
作成日時	2025/04/22 16:36

データタイプ	等間隔データ
横軸	Wavelength [nm]
縦軸	Int.
スタート	446 nm
エンド	700 nm
データ間隔	0.5 nm
データ数	509     

[測定情報]
機種名	FP-8300
シリアル番号	C037361450
  Ex側フォルダ	なし
  Em側フォルダ	なし

付属品名	SCE-846
付属品シリアルNo.	C037361450

測定日時	2025/04/22 16:36

測定モード	蛍光
励起側バンド幅	5 nm
蛍光側バンド幅	5 nm
レスポンス	0.1 sec
感度	Low
測定範囲	446 - 700 nm
データ取込間隔	0.5 nm
励起波長	446.0 nm
走査速度	500 nm/min
オートゲイン	Off
自動シャッタ制御	測定時のみ開く
光源	キセノンランプ
フィルタ	交換時にスキャンを停止する
ブランク補正	Off

