TITLE	
DATA TYPE	FLUORESCENCE SPECTRUM
ORIGIN	JASCO
OWNER	
DATE	25/02/25
TIME	12:38:01
SPECTROMETER/DATA SYSTEM	
LOCALE	1041
RESOLUTION	
DELTAX	0.5
XUNITS	NANOMETERS
YUNITS	INTENSITY
FIRSTX	  447.0000
LASTX	  700.0000
NPOINTS	     507
FIRSTY	   202.82756
MAXY	   647.64240
MINY	     3.20350
XYDATA
447.0000	202.828
447.5000	221.14
448.0000	241.152
448.5000	262.888
449.0000	286.198
449.5000	311.311
450.0000	337.859
450.5000	364.558
451.0000	392.673
451.5000	421.839
452.0000	451.167
452.5000	479.274
453.0000	506.067
453.5000	530.276
454.0000	553.611
454.5000	574.615
455.0000	593.184
455.5000	608.288
456.0000	619.997
456.5000	629.718
457.0000	637.905
457.5000	643.295
458.0000	646.398
458.5000	647.642
459.0000	646.736
459.5000	643.359
460.0000	638.782
460.5000	633.524
461.0000	626.464
461.5000	617.558
462.0000	608.039
462.5000	597.527
463.0000	585.946
463.5000	574.337
464.0000	563.296
464.5000	550.018
465.0000	536.786
465.5000	524.056
466.0000	510.622
466.5000	496.666
467.0000	483.392
467.5000	470.773
468.0000	458.524
468.5000	446.274
469.0000	434.065
469.5000	422.14
470.0000	411.408
470.5000	401.562
471.0000	392.447
471.5000	383.158
472.0000	375.135
472.5000	367.765
473.0000	361.887
473.5000	357.481
474.0000	352.608
474.5000	348.88
475.0000	346.873
475.5000	345.637
476.0000	345.208
476.5000	347.039
477.0000	349.327
477.5000	352.806
478.0000	356.734
478.5000	360.931
479.0000	366.13
479.5000	373.159
480.0000	380.255
480.5000	387.757
481.0000	394.961
481.5000	403.018
482.0000	411.661
482.5000	418.902
483.0000	425.655
483.5000	433.053
484.0000	439.575
484.5000	445.315
485.0000	451.565
485.5000	456.534
486.0000	460.868
486.5000	464.727
487.0000	466.589
487.5000	469.091
488.0000	470.904
488.5000	471.931
489.0000	471.072
489.5000	469.828
490.0000	466.755
490.5000	462.624
491.0000	457.965
491.5000	452.174
492.0000	445.451
492.5000	438.061
493.0000	429.639
493.5000	421.168
494.0000	411.387
494.5000	400.876
495.0000	390.121
495.5000	379.338
496.0000	368.58
496.5000	357.795
497.0000	346.749
497.5000	335.793
498.0000	325.207
498.5000	315.197
499.0000	305.063
499.5000	295.706
500.0000	286.225
500.5000	276.865
501.0000	268.054
501.5000	260.382
502.0000	252.353
502.5000	245.278
503.0000	238.189
503.5000	231.733
504.0000	226.031
504.5000	220.382
505.0000	215.553
505.5000	211.047
506.0000	205.931
506.5000	202.869
507.0000	199.005
507.5000	195.871
508.0000	193.279
508.5000	191.124
509.0000	189.285
509.5000	187.217
510.0000	185.794
510.5000	184.274
511.0000	182.914
511.5000	182.476
512.0000	182.158
512.5000	181.468
513.0000	181.212
513.5000	181.404
514.0000	180.766
514.5000	180.963
515.0000	181.611
515.5000	182.008
516.0000	182.695
516.5000	182.757
517.0000	183.423
517.5000	184.082
518.0000	184.634
518.5000	185.49
519.0000	186.058
519.5000	186.923
520.0000	187.883
520.5000	188.806
521.0000	189.369
521.5000	190.079
522.0000	190.564
522.5000	191.26
523.0000	191.961
523.5000	192.635
524.0000	193.403
524.5000	193.693
525.0000	194.531
525.5000	195.135
526.0000	195.354
526.5000	195.348
527.0000	195.79
527.5000	196.289
528.0000	196.381
528.5000	196.545
529.0000	196.229
529.5000	195.81
530.0000	195.83
530.5000	195.552
531.0000	195.066
531.5000	195.067
532.0000	194.486
532.5000	193.318
533.0000	192.557
533.5000	191.917
534.0000	191.145
534.5000	189.951
535.0000	188.838
535.5000	187.531
536.0000	186.48
536.5000	185.799
537.0000	184.604
537.5000	183.455
538.0000	182.191
538.5000	181.111
539.0000	179.752
539.5000	178.178
540.0000	176.542
540.5000	174.47
541.0000	172.971
541.5000	171.91
542.0000	170.617
542.5000	169.462
543.0000	167.868
543.5000	166.368
544.0000	165.703
544.5000	164.427
545.0000	163.14
545.5000	161.327
546.0000	160.414
546.5000	159.449
547.0000	158.488
547.5000	157.099
548.0000	156.101
548.5000	154.512
549.0000	153.395
549.5000	152.53
550.0000	151.528
550.5000	150.438
551.0000	149.305
551.5000	148.087
552.0000	147.334
552.5000	146.21
553.0000	145.175
553.5000	143.957
554.0000	143.2
554.5000	142.352
555.0000	141.967
555.5000	140.596
556.0000	139.993
556.5000	138.835
557.0000	137.863
557.5000	137.144
558.0000	136.297
558.5000	135.341
559.0000	134.596
559.5000	133.241
560.0000	132.653
560.5000	131.554
561.0000	130.498
561.5000	129.978
562.0000	129.363
562.5000	128.202
563.0000	127.232
563.5000	126.684
564.0000	125.674
564.5000	124.712
565.0000	123.488
565.5000	122.744
566.0000	121.839
566.5000	120.984
567.0000	120.043
567.5000	119.046
568.0000	118.351
568.5000	117.309
569.0000	116.299
569.5000	115.087
570.0000	114.338
570.5000	113.248
571.0000	112.11
571.5000	111.313
572.0000	110.142
572.5000	109.099
573.0000	107.914
573.5000	107.058
574.0000	106.127
574.5000	105.021
575.0000	104.112
575.5000	103.118
576.0000	102.127
576.5000	101.02
577.0000	100.128
577.5000	99.0015
578.0000	97.9473
578.5000	96.7182
579.0000	95.7493
579.5000	94.8797
580.0000	93.5848
580.5000	92.5365
581.0000	91.5223
581.5000	90.5394
582.0000	89.7782
582.5000	88.7857
583.0000	88.1327
583.5000	87.0538
584.0000	86.0676
584.5000	85.0166
585.0000	84.075
585.5000	83.1972
586.0000	82.335
586.5000	81.3616
587.0000	80.2954
587.5000	79.4333
588.0000	78.6744
588.5000	77.7459
589.0000	76.4317
589.5000	75.7393
590.0000	75.1188
590.5000	74.4117
591.0000	73.4211
591.5000	72.544
592.0000	71.686
592.5000	70.9514
593.0000	70.0691
593.5000	69.3315
594.0000	68.7617
594.5000	67.9316
595.0000	66.9899
595.5000	66.0664
596.0000	65.2339
596.5000	64.6298
597.0000	63.9343
597.5000	63.318
598.0000	62.5323
598.5000	62.0164
599.0000	61.1104
599.5000	60.2082
600.0000	59.621
600.5000	59.0177
601.0000	58.3372
601.5000	57.5531
602.0000	56.8058
602.5000	55.862
603.0000	55.2819
603.5000	54.7356
604.0000	54.4365
604.5000	53.5316
605.0000	52.7454
605.5000	52.2285
606.0000	51.6086
606.5000	50.8357
607.0000	50.3651
607.5000	49.7221
608.0000	49.1863
608.5000	48.7731
609.0000	48.152
609.5000	47.4219
610.0000	46.7043
610.5000	46.042
611.0000	45.5494
611.5000	45.0029
612.0000	44.412
612.5000	43.9336
613.0000	43.1453
613.5000	42.8404
614.0000	42.3976
614.5000	41.7559
615.0000	41.3456
615.5000	40.6872
616.0000	40.1456
616.5000	39.6416
617.0000	39.1531
617.5000	38.7854
618.0000	38.2938
618.5000	37.8288
619.0000	37.3621
619.5000	36.6899
620.0000	36.1056
620.5000	35.8447
621.0000	35.0432
621.5000	34.7937
622.0000	34.4762
622.5000	33.7576
623.0000	33.3997
623.5000	33.0481
624.0000	32.5629
624.5000	32.0567
625.0000	31.7127
625.5000	31.1538
626.0000	30.8399
626.5000	30.4958
627.0000	30.0949
627.5000	29.6866
628.0000	29.0833
628.5000	28.5965
629.0000	28.2676
629.5000	27.9094
630.0000	27.6645
630.5000	27.2733
631.0000	26.7736
631.5000	26.5523
632.0000	26.0816
632.5000	25.6897
633.0000	25.248
633.5000	24.9958
634.0000	24.6815
634.5000	24.1747
635.0000	23.9794
635.5000	23.5849
636.0000	23.292
636.5000	22.9852
637.0000	22.6162
637.5000	22.3507
638.0000	22.1308
638.5000	21.5682
639.0000	21.2322
639.5000	21.0512
640.0000	20.7044
640.5000	20.3949
641.0000	20.1892
641.5000	19.805
642.0000	19.5225
642.5000	19.2037
643.0000	18.9973
643.5000	18.5891
644.0000	18.3247
644.5000	18.0628
645.0000	17.8867
645.5000	17.6119
646.0000	17.2752
646.5000	16.9885
647.0000	16.808
647.5000	16.5324
648.0000	16.2469
648.5000	16.0612
649.0000	15.8622
649.5000	15.6319
650.0000	15.4598
650.5000	15.2639
651.0000	14.9319
651.5000	14.6678
652.0000	14.5267
652.5000	14.2356
653.0000	14.0781
653.5000	13.8558
654.0000	13.7388
654.5000	13.4167
655.0000	13.1677
655.5000	12.9774
656.0000	12.8381
656.5000	12.6836
657.0000	12.4135
657.5000	12.2739
658.0000	12.0944
658.5000	12.0036
659.0000	11.7093
659.5000	11.5344
660.0000	11.3825
660.5000	11.2256
661.0000	11.0229
661.5000	10.7993
662.0000	10.5738
662.5000	10.4836
663.0000	10.3968
663.5000	10.2049
664.0000	10.0985
664.5000	9.94314
665.0000	9.83894
665.5000	9.625
666.0000	9.37342
666.5000	9.25182
667.0000	9.06402
667.5000	9.01863
668.0000	8.87082
668.5000	8.81272
669.0000	8.60477
669.5000	8.45425
670.0000	8.32986
670.5000	8.19433
671.0000	8.05809
671.5000	8.02498
672.0000	7.80035
672.5000	7.70342
673.0000	7.58536
673.5000	7.47843
674.0000	7.32766
674.5000	7.25875
675.0000	7.14176
675.5000	7.10983
676.0000	6.99488
676.5000	6.8461
677.0000	6.71974
677.5000	6.56808
678.0000	6.43314
678.5000	6.40312
679.0000	6.3724
679.5000	6.15031
680.0000	6.06756
680.5000	5.97084
681.0000	5.95288
681.5000	5.75394
682.0000	5.62545
682.5000	5.61448
683.0000	5.45605
683.5000	5.40275
684.0000	5.32698
684.5000	5.223
685.0000	5.16209
685.5000	5.09033
686.0000	5.00892
686.5000	4.96803
687.0000	4.88411
687.5000	4.78189
688.0000	4.77033
688.5000	4.67995
689.0000	4.58757
689.5000	4.51176
690.0000	4.4385
690.5000	4.35677
691.0000	4.25026
691.5000	4.17109
692.0000	4.18878
692.5000	4.05101
693.0000	4.03165
693.5000	3.95867
694.0000	3.91723
694.5000	3.85174
695.0000	3.81531
695.5000	3.78534
696.0000	3.65722
696.5000	3.59052
697.0000	3.63005
697.5000	3.57242
698.0000	3.46289
698.5000	3.3886
699.0000	3.35949
699.5000	3.2669
700.0000	3.2035

##### Extended Information
[コメント情報]
試料名
コメント
測定者
所属
会社	関西大学

[データ情報]
作成日時	2025/02/25 12:38

データタイプ	等間隔データ
横軸	Wavelength [nm]
縦軸	Int.
スタート	447 nm
エンド	700 nm
データ間隔	0.5 nm
データ数	507     

[測定情報]
機種名	FP-8300
シリアル番号	C037361450
  Ex側フォルダ	なし
  Em側フォルダ	なし

付属品名	SCE-846
付属品シリアルNo.	C037361450

測定日時	2025/02/25 12:37

測定モード	蛍光
励起側バンド幅	5 nm
蛍光側バンド幅	5 nm
レスポンス	0.1 sec
感度	Low
測定範囲	447 - 700 nm
データ取込間隔	0.5 nm
励起波長	447.0 nm
走査速度	500 nm/min
オートゲイン	Off
自動シャッタ制御	測定時のみ開く
光源	キセノンランプ
フィルタ	交換時にスキャンを停止する
ブランク補正	Off

