TITLE	
DATA TYPE	FLUORESCENCE SPECTRUM
ORIGIN	JASCO
OWNER	
DATE	25/05/14
TIME	19:49:34
SPECTROMETER/DATA SYSTEM	
LOCALE	1041
RESOLUTION	
DELTAX	0.5
XUNITS	NANOMETERS
YUNITS	INTENSITY
FIRSTX	  449.0000
LASTX	  700.0000
NPOINTS	     503
FIRSTY	   748.66711
MAXY	  1461.80005
MINY	     1.97735
XYDATA
449.0000	748.667
449.5000	809.654
450.0000	869.821
450.5000	929.573
451.0000	990.183
451.5000	1049.4
452.0000	1107.21
452.5000	1162.97
453.0000	1216.68
453.5000	1266.75
454.0000	1311.64
454.5000	1350.94
455.0000	1383.23
455.5000	1411.07
456.0000	1432.13
456.5000	1447.26
457.0000	1457.05
457.5000	1461.8
458.0000	1460.2
458.5000	1455.07
459.0000	1445.1
459.5000	1431.85
460.0000	1415.94
460.5000	1396.27
461.0000	1374.06
461.5000	1349.57
462.0000	1324.74
462.5000	1296.32
463.0000	1265.94
463.5000	1235.54
464.0000	1204.4
464.5000	1173.06
465.0000	1140.61
465.5000	1107.36
466.0000	1074.73
466.5000	1043.28
467.0000	1012.48
467.5000	981.458
468.0000	952.043
468.5000	923.691
469.0000	896.056
469.5000	868.971
470.0000	843.919
470.5000	821.875
471.0000	800.882
471.5000	780.452
472.0000	763.39
472.5000	749.118
473.0000	735.053
473.5000	724.619
474.0000	716.247
474.5000	709.633
475.0000	706.675
475.5000	705.849
476.0000	706.565
476.5000	710.527
477.0000	716.245
477.5000	724.71
478.0000	734.754
478.5000	746.193
479.0000	760.403
479.5000	775.373
480.0000	790.22
480.5000	806.438
481.0000	821.748
481.5000	838.313
482.0000	855.111
482.5000	871.379
483.0000	885.427
483.5000	898.958
484.0000	911.044
484.5000	922.782
485.0000	932.394
485.5000	940.637
486.0000	947.793
486.5000	952.543
487.0000	955.83
487.5000	957.41
488.0000	957.553
488.5000	954.424
489.0000	949.509
489.5000	942.335
490.0000	932.805
490.5000	921.793
491.0000	909.163
491.5000	893.342
492.0000	876.356
492.5000	857.152
493.0000	836.732
493.5000	814.949
494.0000	791.105
494.5000	766.851
495.0000	743.34
495.5000	719.104
496.0000	694.811
496.5000	671.247
497.0000	647.031
497.5000	622.875
498.0000	599.837
498.5000	578.235
499.0000	557.288
499.5000	536.044
500.0000	516.317
500.5000	496.334
501.0000	477.679
501.5000	460.844
502.0000	444.085
502.5000	428.571
503.0000	413.734
503.5000	400.162
504.0000	387.916
504.5000	375.886
505.0000	365.16
505.5000	355.518
506.0000	346.58
506.5000	338.593
507.0000	330.976
507.5000	323.474
508.0000	317.78
508.5000	312.85
509.0000	307.382
509.5000	303.019
510.0000	299.264
510.5000	296.046
511.0000	292.902
511.5000	291.055
512.0000	289.118
512.5000	287.504
513.0000	285.994
513.5000	285.256
514.0000	284.993
514.5000	284.059
515.0000	283.591
515.5000	283.604
516.0000	283.592
516.5000	283.317
517.0000	284.079
517.5000	284.357
518.0000	285.378
518.5000	286.023
519.0000	285.749
519.5000	286.449
520.0000	287.291
520.5000	287.732
521.0000	288.04
521.5000	288.567
522.0000	289.508
522.5000	290.338
523.0000	290.401
523.5000	290.113
524.0000	290.178
524.5000	290.598
525.0000	290.112
525.5000	290.41
526.0000	289.738
526.5000	288.856
527.0000	288.686
527.5000	288.512
528.0000	287.408
528.5000	286.223
529.0000	285.04
529.5000	283.929
530.0000	281.949
530.5000	280.836
531.0000	279.006
531.5000	277.352
532.0000	275.266
532.5000	273.193
533.0000	270.617
533.5000	268.013
534.0000	265.889
534.5000	263.616
535.0000	261.059
535.5000	258.293
536.0000	255.19
536.5000	252.322
537.0000	249.145
537.5000	246.793
538.0000	243.761
538.5000	240.468
539.0000	237.734
539.5000	234.723
540.0000	231.216
540.5000	227.639
541.0000	224.962
541.5000	221.792
542.0000	218.934
542.5000	215.933
543.0000	213.123
543.5000	210.631
544.0000	207.81
544.5000	205.161
545.0000	202.539
545.5000	199.919
546.0000	197.63
546.5000	195.206
547.0000	192.962
547.5000	190.56
548.0000	188.179
548.5000	185.95
549.0000	183.731
549.5000	181.811
550.0000	180.218
550.5000	178.432
551.0000	176.155
551.5000	174.238
552.0000	172.708
552.5000	170.917
553.0000	169.319
553.5000	168.001
554.0000	166.039
554.5000	164.375
555.0000	162.942
555.5000	161.006
556.0000	160.233
556.5000	158.715
557.0000	157.028
557.5000	155.976
558.0000	154.771
558.5000	153.353
559.0000	152.184
559.5000	150.757
560.0000	149.48
560.5000	148.147
561.0000	146.751
561.5000	145.318
562.0000	144.015
562.5000	142.781
563.0000	141.513
563.5000	140.421
564.0000	139.186
564.5000	137.521
565.0000	136.571
565.5000	135.006
566.0000	133.375
566.5000	132.159
567.0000	130.816
567.5000	129.382
568.0000	127.858
568.5000	126.436
569.0000	124.935
569.5000	123.3
570.0000	122.621
570.5000	121.108
571.0000	119.741
571.5000	118.276
572.0000	116.541
572.5000	115.294
573.0000	113.793
573.5000	112.524
574.0000	111.336
574.5000	109.582
575.0000	108.419
575.5000	107.04
576.0000	105.216
576.5000	103.763
577.0000	102.9
577.5000	101.141
578.0000	99.4756
578.5000	98.1093
579.0000	96.7589
579.5000	95.4274
580.0000	94.3547
580.5000	93.088
581.0000	91.441
581.5000	90.1186
582.0000	88.6871
582.5000	87.5518
583.0000	86.4603
583.5000	85.2487
584.0000	83.9206
584.5000	82.7804
585.0000	81.7304
585.5000	80.4431
586.0000	79.0427
586.5000	78.0132
587.0000	76.7977
587.5000	75.6609
588.0000	74.8886
588.5000	73.6864
589.0000	72.5458
589.5000	71.5727
590.0000	70.4422
590.5000	69.4817
591.0000	68.1888
591.5000	67.2497
592.0000	66.4997
592.5000	65.6732
593.0000	64.6487
593.5000	63.3405
594.0000	62.5743
594.5000	61.739
595.0000	60.8092
595.5000	59.9047
596.0000	59.2136
596.5000	58.3772
597.0000	57.535
597.5000	56.7296
598.0000	55.9031
598.5000	55.1258
599.0000	54.2079
599.5000	53.5021
600.0000	52.5666
600.5000	51.884
601.0000	51.0071
601.5000	50.3815
602.0000	49.7957
602.5000	49.3302
603.0000	48.4336
603.5000	47.7845
604.0000	47.1331
604.5000	46.4959
605.0000	45.6928
605.5000	44.9576
606.0000	44.4058
606.5000	43.8471
607.0000	43.1971
607.5000	42.8469
608.0000	42.1815
608.5000	41.4751
609.0000	40.956
609.5000	40.4348
610.0000	40.0564
610.5000	39.4248
611.0000	38.748
611.5000	38.1178
612.0000	37.573
612.5000	37.0278
613.0000	36.5465
613.5000	36.0223
614.0000	35.4933
614.5000	34.9389
615.0000	34.4464
615.5000	33.9625
616.0000	33.6577
616.5000	33.1484
617.0000	32.5781
617.5000	32.1134
618.0000	31.655
618.5000	31.0994
619.0000	30.6785
619.5000	30.209
620.0000	29.7663
620.5000	29.2423
621.0000	28.8825
621.5000	28.455
622.0000	28.1493
622.5000	27.7649
623.0000	27.2575
623.5000	26.8772
624.0000	26.4587
624.5000	26.0683
625.0000	25.7565
625.5000	25.2254
626.0000	24.6795
626.5000	24.4014
627.0000	23.9126
627.5000	23.5933
628.0000	23.192
628.5000	22.8423
629.0000	22.4797
629.5000	22.2107
630.0000	21.8437
630.5000	21.4589
631.0000	21.1248
631.5000	21.0718
632.0000	20.6031
632.5000	20.2121
633.0000	19.9868
633.5000	19.6125
634.0000	19.2525
634.5000	18.8786
635.0000	18.6885
635.5000	18.3181
636.0000	18.1093
636.5000	17.8315
637.0000	17.4558
637.5000	17.2339
638.0000	17.0106
638.5000	16.7983
639.0000	16.4711
639.5000	16.2262
640.0000	15.9502
640.5000	15.5342
641.0000	15.3153
641.5000	15.0294
642.0000	14.8577
642.5000	14.7089
643.0000	14.4574
643.5000	14.2245
644.0000	13.9435
644.5000	13.6406
645.0000	13.4523
645.5000	13.2504
646.0000	13.046
646.5000	12.8399
647.0000	12.7329
647.5000	12.4875
648.0000	12.2992
648.5000	11.9679
649.0000	11.7324
649.5000	11.4617
650.0000	11.3687
650.5000	11.3165
651.0000	11.1093
651.5000	10.9374
652.0000	10.7252
652.5000	10.6143
653.0000	10.385
653.5000	10.1444
654.0000	9.93134
654.5000	9.83062
655.0000	9.69377
655.5000	9.46773
656.0000	9.28285
656.5000	9.18141
657.0000	9.08579
657.5000	8.99259
658.0000	8.74989
658.5000	8.67054
659.0000	8.45085
659.5000	8.34525
660.0000	8.18551
660.5000	8.05112
661.0000	7.86488
661.5000	7.70907
662.0000	7.55042
662.5000	7.48387
663.0000	7.42459
663.5000	7.34599
664.0000	7.24851
664.5000	7.06722
665.0000	6.88949
665.5000	6.76264
666.0000	6.74732
666.5000	6.62522
667.0000	6.49742
667.5000	6.31744
668.0000	6.18057
668.5000	6.15241
669.0000	6.03517
669.5000	5.91729
670.0000	5.79847
670.5000	5.67429
671.0000	5.65783
671.5000	5.51508
672.0000	5.42348
672.5000	5.33557
673.0000	5.24227
673.5000	5.15904
674.0000	5.07964
674.5000	4.9886
675.0000	4.87272
675.5000	4.79448
676.0000	4.74679
676.5000	4.7352
677.0000	4.57716
677.5000	4.41858
678.0000	4.3125
678.5000	4.32413
679.0000	4.28764
679.5000	4.22482
680.0000	4.13933
680.5000	4.0158
681.0000	3.96189
681.5000	3.88239
682.0000	3.82596
682.5000	3.80014
683.0000	3.74611
683.5000	3.59552
684.0000	3.55075
684.5000	3.44934
685.0000	3.41977
685.5000	3.41023
686.0000	3.27867
686.5000	3.2356
687.0000	3.20303
687.5000	3.10448
688.0000	3.12749
688.5000	3.0176
689.0000	2.96635
689.5000	2.90078
690.0000	2.83854
690.5000	2.83697
691.0000	2.74631
691.5000	2.73088
692.0000	2.66254
692.5000	2.60494
693.0000	2.58821
693.5000	2.55712
694.0000	2.46848
694.5000	2.4314
695.0000	2.41465
695.5000	2.37641
696.0000	2.26385
696.5000	2.2727
697.0000	2.21741
697.5000	2.19093
698.0000	2.16435
698.5000	2.12126
699.0000	2.0954
699.5000	2.01916
700.0000	1.97735

##### Extended Information
[コメント情報]
試料名
コメント
測定者
所属
会社	関西大学

[データ情報]
作成日時	2025/05/14 19:49

データタイプ	等間隔データ
横軸	Wavelength [nm]
縦軸	Int.
スタート	449 nm
エンド	700 nm
データ間隔	0.5 nm
データ数	503     

[測定情報]
機種名	FP-8300
シリアル番号	C037361450
  Ex側フォルダ	なし
  Em側フォルダ	なし

付属品名	SCE-846
付属品シリアルNo.	C037361450

測定日時	2025/05/14 19:49

測定モード	蛍光
励起側バンド幅	5 nm
蛍光側バンド幅	5 nm
レスポンス	0.1 sec
感度	Low
測定範囲	449 - 700 nm
データ取込間隔	0.5 nm
励起波長	449.0 nm
走査速度	500 nm/min
オートゲイン	Off
自動シャッタ制御	測定時のみ開く
光源	キセノンランプ
フィルタ	交換時にスキャンを停止する
ブランク補正	Off

