TITLE	
DATA TYPE	FLUORESCENCE SPECTRUM
ORIGIN	JASCO
OWNER	
DATE	25/05/13
TIME	16:39:58
SPECTROMETER/DATA SYSTEM	
LOCALE	1041
RESOLUTION	
DELTAX	0.5
XUNITS	NANOMETERS
YUNITS	INTENSITY
FIRSTX	  446.0000
LASTX	  700.0000
NPOINTS	     509
FIRSTY	   247.74600
MAXY	   247.74600
MINY	     1.34566
XYDATA
446.0000	247.746
446.5000	235.252
447.0000	215.609
447.5000	192.696
448.0000	168.512
448.5000	144.817
449.0000	124.26
449.5000	106.566
450.0000	93.0153
450.5000	84.5269
451.0000	79.0861
451.5000	75.8568
452.0000	74.2369
452.5000	74.1858
453.0000	74.2341
453.5000	74.3898
454.0000	74.5266
454.5000	74.7477
455.0000	74.9691
455.5000	74.7483
456.0000	74.1987
456.5000	73.5797
457.0000	72.8262
457.5000	71.8977
458.0000	71.0323
458.5000	70.0414
459.0000	69.3937
459.5000	67.9819
460.0000	66.6728
460.5000	65.1141
461.0000	63.825
461.5000	62.4019
462.0000	60.838
462.5000	59.3956
463.0000	57.9708
463.5000	56.4927
464.0000	55.025
464.5000	53.7773
465.0000	52.4701
465.5000	51.1911
466.0000	50.0557
466.5000	49.1017
467.0000	47.9547
467.5000	46.9236
468.0000	46.0383
468.5000	45.2225
469.0000	44.6802
469.5000	44.1896
470.0000	43.7518
470.5000	43.4717
471.0000	43.3083
471.5000	43.2436
472.0000	43.3063
472.5000	43.4258
473.0000	43.8683
473.5000	44.4985
474.0000	44.9045
474.5000	45.4439
475.0000	46.3196
475.5000	47.0231
476.0000	47.8042
476.5000	48.5112
477.0000	49.4329
477.5000	50.3665
478.0000	51.2909
478.5000	51.9326
479.0000	52.583
479.5000	53.507
480.0000	54.4081
480.5000	54.9757
481.0000	55.3077
481.5000	55.5733
482.0000	55.9888
482.5000	56.0966
483.0000	56.5428
483.5000	56.674
484.0000	56.776
484.5000	56.6048
485.0000	56.4638
485.5000	56.3203
486.0000	55.6677
486.5000	55.5095
487.0000	55.4733
487.5000	54.753
488.0000	53.7939
488.5000	53.3742
489.0000	52.7624
489.5000	52.1827
490.0000	51.2401
490.5000	50.4196
491.0000	49.4088
491.5000	48.3391
492.0000	47.281
492.5000	46.1265
493.0000	45.0468
493.5000	43.9
494.0000	42.6765
494.5000	41.4641
495.0000	40.2557
495.5000	38.9425
496.0000	37.7838
496.5000	36.6645
497.0000	35.5011
497.5000	34.336
498.0000	33.2791
498.5000	32.3279
499.0000	31.3581
499.5000	30.531
500.0000	29.6671
500.5000	28.8942
501.0000	27.9415
501.5000	27.1254
502.0000	26.4549
502.5000	25.8769
503.0000	25.3791
503.5000	24.8364
504.0000	24.3378
504.5000	23.9435
505.0000	23.4491
505.5000	23.2956
506.0000	23.2166
506.5000	22.9803
507.0000	22.87
507.5000	22.6229
508.0000	22.6183
508.5000	22.6335
509.0000	22.6151
509.5000	22.6284
510.0000	22.5151
510.5000	22.5791
511.0000	22.6186
511.5000	22.667
512.0000	22.9169
512.5000	22.9956
513.0000	23.1907
513.5000	23.2884
514.0000	23.1225
514.5000	23.0969
515.0000	23.0506
515.5000	23.0158
516.0000	23.1531
516.5000	22.9735
517.0000	23.0087
517.5000	22.9796
518.0000	22.8312
518.5000	22.8168
519.0000	22.8513
519.5000	22.7402
520.0000	22.7754
520.5000	22.8163
521.0000	22.6288
521.5000	22.6779
522.0000	22.5705
522.5000	22.6243
523.0000	22.6465
523.5000	22.6179
524.0000	22.5932
524.5000	22.5458
525.0000	22.5084
525.5000	22.5967
526.0000	22.4539
526.5000	22.4565
527.0000	22.4288
527.5000	22.4862
528.0000	22.3808
528.5000	22.1991
529.0000	22.163
529.5000	22.0531
530.0000	21.956
530.5000	22.0573
531.0000	21.8946
531.5000	21.9967
532.0000	22.0065
532.5000	21.9495
533.0000	21.7904
533.5000	21.6192
534.0000	21.5279
534.5000	21.4283
535.0000	21.2391
535.5000	21.1139
536.0000	21.1215
536.5000	21.1323
537.0000	20.7956
537.5000	20.6748
538.0000	20.6486
538.5000	20.5654
539.0000	20.386
539.5000	20.2227
540.0000	20.2635
540.5000	20.1107
541.0000	20.0066
541.5000	19.9111
542.0000	19.8502
542.5000	19.7138
543.0000	19.533
543.5000	19.5329
544.0000	19.4161
544.5000	19.3131
545.0000	19.0426
545.5000	19.0165
546.0000	18.946
546.5000	18.9459
547.0000	18.9143
547.5000	18.8728
548.0000	18.6838
548.5000	18.6339
549.0000	18.5541
549.5000	18.4697
550.0000	18.353
550.5000	18.2757
551.0000	18.1354
551.5000	18.0808
552.0000	18.0622
552.5000	18.0517
553.0000	17.9639
553.5000	17.7656
554.0000	17.6037
554.5000	17.6195
555.0000	17.5313
555.5000	17.5869
556.0000	17.5871
556.5000	17.1652
557.0000	17.1215
557.5000	17.2092
558.0000	17.0098
558.5000	16.9151
559.0000	16.9352
559.5000	16.8334
560.0000	16.6694
560.5000	16.5915
561.0000	16.52
561.5000	16.4606
562.0000	16.4357
562.5000	16.1552
563.0000	16.0195
563.5000	16.2132
564.0000	16.2802
564.5000	15.9557
565.0000	15.7215
565.5000	15.577
566.0000	15.5292
566.5000	15.4387
567.0000	15.2577
567.5000	15.1905
568.0000	14.9737
568.5000	15.0609
569.0000	15.0206
569.5000	14.8576
570.0000	14.7689
570.5000	14.6324
571.0000	14.5722
571.5000	14.4309
572.0000	14.3238
572.5000	14.2941
573.0000	14.2745
573.5000	13.9718
574.0000	13.814
574.5000	13.9635
575.0000	13.8765
575.5000	13.6752
576.0000	13.5138
576.5000	13.3434
577.0000	13.3452
577.5000	13.2803
578.0000	13.1872
578.5000	13.0297
579.0000	12.8813
579.5000	12.9435
580.0000	12.7528
580.5000	12.5969
581.0000	12.4782
581.5000	12.3811
582.0000	12.3439
582.5000	12.4082
583.0000	12.3146
583.5000	12.2004
584.0000	12.1113
584.5000	11.951
585.0000	11.9466
585.5000	11.9136
586.0000	11.7234
586.5000	11.6919
587.0000	11.6064
587.5000	11.3557
588.0000	11.3737
588.5000	11.3519
589.0000	11.2462
589.5000	11.083
590.0000	11.0787
590.5000	10.9485
591.0000	11.0164
591.5000	10.9054
592.0000	10.7393
592.5000	10.6433
593.0000	10.5978
593.5000	10.526
594.0000	10.5238
594.5000	10.4474
595.0000	10.276
595.5000	10.2488
596.0000	10.1403
596.5000	10.0184
597.0000	10.0267
597.5000	9.95323
598.0000	9.83912
598.5000	9.7733
599.0000	9.71553
599.5000	9.66634
600.0000	9.5595
600.5000	9.44831
601.0000	9.38879
601.5000	9.39555
602.0000	9.34707
602.5000	9.20364
603.0000	9.14208
603.5000	9.14581
604.0000	9.10748
604.5000	9.03684
605.0000	9.03341
605.5000	8.87013
606.0000	8.80003
606.5000	8.73117
607.0000	8.65318
607.5000	8.58843
608.0000	8.47254
608.5000	8.44313
609.0000	8.3891
609.5000	8.37645
610.0000	8.35377
610.5000	8.20035
611.0000	8.10814
611.5000	8.04764
612.0000	8.06024
612.5000	8.06516
613.0000	7.9717
613.5000	7.82361
614.0000	7.71911
614.5000	7.67262
615.0000	7.66432
615.5000	7.58842
616.0000	7.48323
616.5000	7.46429
617.0000	7.4369
617.5000	7.41916
618.0000	7.38042
618.5000	7.29934
619.0000	7.14288
619.5000	7.12281
620.0000	7.09687
620.5000	6.99739
621.0000	6.92748
621.5000	6.81961
622.0000	6.76347
622.5000	6.79612
623.0000	6.78202
623.5000	6.72531
624.0000	6.68446
624.5000	6.50817
625.0000	6.47278
625.5000	6.53379
626.0000	6.49093
626.5000	6.28442
627.0000	6.25082
627.5000	6.23381
628.0000	6.21341
628.5000	6.20512
629.0000	6.09197
629.5000	5.9887
630.0000	5.88819
630.5000	5.879
631.0000	5.8313
631.5000	5.80249
632.0000	5.76272
632.5000	5.72838
633.0000	5.61427
633.5000	5.53267
634.0000	5.55243
634.5000	5.54539
635.0000	5.52147
635.5000	5.39119
636.0000	5.29899
636.5000	5.2641
637.0000	5.22573
637.5000	5.19344
638.0000	5.22141
638.5000	5.16877
639.0000	5.14619
639.5000	5.0664
640.0000	4.98869
640.5000	4.92631
641.0000	4.92103
641.5000	4.81911
642.0000	4.83433
642.5000	4.72425
643.0000	4.72356
643.5000	4.70384
644.0000	4.56984
644.5000	4.58366
645.0000	4.50865
645.5000	4.43686
646.0000	4.38994
646.5000	4.35596
647.0000	4.28421
647.5000	4.29947
648.0000	4.30817
648.5000	4.22384
649.0000	4.17905
649.5000	4.20144
650.0000	4.07051
650.5000	4.04215
651.0000	4.06816
651.5000	3.99169
652.0000	3.91489
652.5000	3.87559
653.0000	3.84941
653.5000	3.78933
654.0000	3.80048
654.5000	3.75287
655.0000	3.70311
655.5000	3.58062
656.0000	3.59322
656.5000	3.61408
657.0000	3.60727
657.5000	3.54639
658.0000	3.48638
658.5000	3.51116
659.0000	3.43079
659.5000	3.37035
660.0000	3.33961
660.5000	3.33276
661.0000	3.29901
661.5000	3.31202
662.0000	3.2097
662.5000	3.16145
663.0000	3.20232
663.5000	3.17206
664.0000	3.05347
664.5000	3.03918
665.0000	2.98694
665.5000	3.00297
666.0000	3.04187
666.5000	2.97013
667.0000	2.93572
667.5000	2.87134
668.0000	2.81736
668.5000	2.82605
669.0000	2.74622
669.5000	2.73119
670.0000	2.69833
670.5000	2.67911
671.0000	2.65689
671.5000	2.65266
672.0000	2.59293
672.5000	2.53345
673.0000	2.47403
673.5000	2.46129
674.0000	2.44949
674.5000	2.43185
675.0000	2.37774
675.5000	2.40835
676.0000	2.35159
676.5000	2.31126
677.0000	2.34104
677.5000	2.28819
678.0000	2.25371
678.5000	2.25183
679.0000	2.24147
679.5000	2.17381
680.0000	2.13641
680.5000	2.13956
681.0000	2.09261
681.5000	2.10373
682.0000	2.06638
682.5000	2.10369
683.0000	2.02841
683.5000	2.02204
684.0000	1.95482
684.5000	1.93948
685.0000	1.9486
685.5000	1.97398
686.0000	1.87463
686.5000	1.87227
687.0000	1.83721
687.5000	1.82452
688.0000	1.83896
688.5000	1.83175
689.0000	1.75633
689.5000	1.74732
690.0000	1.75878
690.5000	1.69938
691.0000	1.632
691.5000	1.64857
692.0000	1.64038
692.5000	1.60025
693.0000	1.59788
693.5000	1.6217
694.0000	1.59448
694.5000	1.5568
695.0000	1.51651
695.5000	1.51852
696.0000	1.51143
696.5000	1.5058
697.0000	1.45618
697.5000	1.44526
698.0000	1.38073
698.5000	1.42105
699.0000	1.40698
699.5000	1.39891
700.0000	1.34566

##### Extended Information
[コメント情報]
試料名
コメント
測定者
所属
会社	関西大学

[データ情報]
作成日時	2025/05/13 16:39

データタイプ	等間隔データ
横軸	Wavelength [nm]
縦軸	Int.
スタート	446 nm
エンド	700 nm
データ間隔	0.5 nm
データ数	509     

[測定情報]
機種名	FP-8300
シリアル番号	C037361450
  Ex側フォルダ	なし
  Em側フォルダ	なし

付属品名	SCE-846
付属品シリアルNo.	C037361450

測定日時	2025/05/13 16:39

測定モード	蛍光
励起側バンド幅	5 nm
蛍光側バンド幅	5 nm
レスポンス	0.1 sec
感度	Low
測定範囲	446 - 700 nm
データ取込間隔	0.5 nm
励起波長	446.0 nm
走査速度	500 nm/min
オートゲイン	Off
自動シャッタ制御	測定時のみ開く
光源	キセノンランプ
フィルタ	交換時にスキャンを停止する
ブランク補正	Off

