TITLE	
DATA TYPE	FLUORESCENCE SPECTRUM
ORIGIN	JASCO
OWNER	
DATE	25/02/07
TIME	11:28:18
SPECTROMETER/DATA SYSTEM	
LOCALE	1041
RESOLUTION	
DELTAX	0.5
XUNITS	NANOMETERS
YUNITS	INTENSITY
FIRSTX	  448.0000
LASTX	  700.0000
NPOINTS	     505
FIRSTY	   484.85428
MAXY	  1278.39722
MINY	     2.09623
XYDATA
448.0000	484.854
448.5000	532.256
449.0000	582.268
449.5000	633.381
450.0000	686.298
450.5000	741.05
451.0000	796.157
451.5000	851.278
452.0000	907.062
452.5000	963.004
453.0000	1016.12
453.5000	1063.64
454.0000	1107.95
454.5000	1149.03
455.0000	1184.8
455.5000	1213.55
456.0000	1237.63
456.5000	1255.09
457.0000	1267.78
457.5000	1275.38
458.0000	1278.4
458.5000	1276.72
459.0000	1271.7
459.5000	1263.19
460.0000	1251.53
460.5000	1236.4
461.0000	1218.49
461.5000	1200.07
462.0000	1179.45
462.5000	1156.37
463.0000	1130.39
463.5000	1103.59
464.0000	1078.09
464.5000	1049.92
465.0000	1022.04
465.5000	993.633
466.0000	966.366
466.5000	938.093
467.0000	909.575
467.5000	882.481
468.0000	856.227
468.5000	830.365
469.0000	805.469
469.5000	782.225
470.0000	760.084
470.5000	738.738
471.0000	718.037
471.5000	699.698
472.0000	683.609
472.5000	669.854
473.0000	656.968
473.5000	645.47
474.0000	636.721
474.5000	629.559
475.0000	625.644
475.5000	623.56
476.0000	622.106
476.5000	625.103
477.0000	629.19
477.5000	634.983
478.0000	642.672
478.5000	651.981
479.0000	663.459
479.5000	675.802
480.0000	689.621
480.5000	704.491
481.0000	718.86
481.5000	733.149
482.0000	747.698
482.5000	762.929
483.0000	776.821
483.5000	789.845
484.0000	802.909
484.5000	814.482
485.0000	824.394
485.5000	833.535
486.0000	841.007
486.5000	847.1
487.0000	851.005
487.5000	853.927
488.0000	855.695
488.5000	855.074
489.0000	851.683
489.5000	847.901
490.0000	841.123
490.5000	831.671
491.0000	821.013
491.5000	808.719
492.0000	794.823
492.5000	778.628
493.0000	761.348
493.5000	742.004
494.0000	722.117
494.5000	700.847
495.0000	678.927
495.5000	657.263
496.0000	635.385
496.5000	613.442
497.0000	591.985
497.5000	570.909
498.0000	549.235
498.5000	529.286
499.0000	509.23
499.5000	490.468
500.0000	472.122
500.5000	453.476
501.0000	435.99
501.5000	419.459
502.0000	404.507
502.5000	390.864
503.0000	377.468
503.5000	364.205
504.0000	351.884
504.5000	341.29
505.0000	331.764
505.5000	322.025
506.0000	313.046
506.5000	305.272
507.0000	298.37
507.5000	292.208
508.0000	285.725
508.5000	280.418
509.0000	275.585
509.5000	271.072
510.0000	267.474
510.5000	264.37
511.0000	261.964
511.5000	259.483
512.0000	258.009
512.5000	256.909
513.0000	255.459
513.5000	254.467
514.0000	253.426
514.5000	252.401
515.0000	252.016
515.5000	252.115
516.0000	252.268
516.5000	252.467
517.0000	252.5
517.5000	252.588
518.0000	253.073
518.5000	254.005
519.0000	254.161
519.5000	254.923
520.0000	255.716
520.5000	255.739
521.0000	256.291
521.5000	256.947
522.0000	256.935
522.5000	256.835
523.0000	257.402
523.5000	257.684
524.0000	257.523
524.5000	257.191
525.0000	257.056
525.5000	256.766
526.0000	256.556
526.5000	255.777
527.0000	255.242
527.5000	254.359
528.0000	253.355
528.5000	252.063
529.0000	250.646
529.5000	249.871
530.0000	247.946
530.5000	246.202
531.0000	244.518
531.5000	242.623
532.0000	240.177
532.5000	238.233
533.0000	236.363
533.5000	233.648
534.0000	230.62
534.5000	227.865
535.0000	225.309
535.5000	222.656
536.0000	219.858
536.5000	216.734
537.0000	214.124
537.5000	211.044
538.0000	208.352
538.5000	205.409
539.0000	201.933
539.5000	199.059
540.0000	196.675
540.5000	192.061
541.0000	188.965
541.5000	186.375
542.0000	183.957
542.5000	181.136
543.0000	178.208
543.5000	175.847
544.0000	173.487
544.5000	171.063
545.0000	168.669
545.5000	166.141
546.0000	163.535
546.5000	161.439
547.0000	159.444
547.5000	157.439
548.0000	155.387
548.5000	153.395
549.0000	151.576
549.5000	149.614
550.0000	147.404
550.5000	145.843
551.0000	144.465
551.5000	143.335
552.0000	141.554
552.5000	140.074
553.0000	138.666
553.5000	137.205
554.0000	135.128
554.5000	134.068
555.0000	132.691
555.5000	131.933
556.0000	130.547
556.5000	129.262
557.0000	128.072
557.5000	127.253
558.0000	125.877
558.5000	124.891
559.0000	124.174
559.5000	122.974
560.0000	121.713
560.5000	120.778
561.0000	119.769
561.5000	118.685
562.0000	117.881
562.5000	116.66
563.0000	115.686
563.5000	114.731
564.0000	113.397
564.5000	112.409
565.0000	111.534
565.5000	110.407
566.0000	109.467
566.5000	108.144
567.0000	106.826
567.5000	105.636
568.0000	104.693
568.5000	103.392
569.0000	102.265
569.5000	101.438
570.0000	100.309
570.5000	99.0345
571.0000	98.0143
571.5000	96.9448
572.0000	95.5652
572.5000	94.4426
573.0000	93.6138
573.5000	92.3372
574.0000	90.8435
574.5000	89.7251
575.0000	88.735
575.5000	87.7034
576.0000	86.3617
576.5000	84.9227
577.0000	84.2185
577.5000	83.1012
578.0000	81.8605
578.5000	80.6134
579.0000	79.6146
579.5000	78.5518
580.0000	77.4224
580.5000	76.2582
581.0000	75.2595
581.5000	74.1687
582.0000	73.0068
582.5000	72.067
583.0000	70.9897
583.5000	70.2234
584.0000	69.1862
584.5000	68.1413
585.0000	67.2286
585.5000	66.189
586.0000	65.1228
586.5000	64.1119
587.0000	63.1291
587.5000	62.436
588.0000	61.5374
588.5000	60.77
589.0000	59.6971
589.5000	58.6388
590.0000	58.0696
590.5000	57.3221
591.0000	56.414
591.5000	55.4113
592.0000	54.4526
592.5000	53.9402
593.0000	53.0525
593.5000	52.336
594.0000	51.4691
594.5000	50.7202
595.0000	50.0855
595.5000	49.4354
596.0000	48.7404
596.5000	48.2033
597.0000	47.3137
597.5000	46.7593
598.0000	46.1532
598.5000	45.5156
599.0000	44.885
599.5000	44.138
600.0000	43.6087
600.5000	42.9831
601.0000	42.3875
601.5000	41.8249
602.0000	41.3477
602.5000	40.8456
603.0000	40.184
603.5000	39.4908
604.0000	39.1946
604.5000	38.5124
605.0000	37.9785
605.5000	37.5104
606.0000	36.9183
606.5000	36.6405
607.0000	36.3246
607.5000	35.7844
608.0000	35.2001
608.5000	34.6818
609.0000	34.2636
609.5000	33.8752
610.0000	33.2622
610.5000	32.7179
611.0000	32.4134
611.5000	31.9449
612.0000	31.5292
612.5000	31.0782
613.0000	30.543
613.5000	30.2405
614.0000	29.9501
614.5000	29.518
615.0000	29.1056
615.5000	28.5808
616.0000	28.1498
616.5000	27.6433
617.0000	27.2999
617.5000	26.8734
618.0000	26.5925
618.5000	26.2618
619.0000	25.9653
619.5000	25.5263
620.0000	25.2925
620.5000	24.8238
621.0000	24.3931
621.5000	23.9925
622.0000	23.6855
622.5000	23.4088
623.0000	23.0206
623.5000	22.7053
624.0000	22.3902
624.5000	22.09
625.0000	21.6687
625.5000	21.3509
626.0000	21.1063
626.5000	20.7229
627.0000	20.5007
627.5000	20.1055
628.0000	19.8395
628.5000	19.5633
629.0000	19.2937
629.5000	19.0243
630.0000	18.7405
630.5000	18.4851
631.0000	18.1703
631.5000	17.8599
632.0000	17.6078
632.5000	17.2889
633.0000	17.0941
633.5000	16.8358
634.0000	16.5082
634.5000	16.1904
635.0000	16.1015
635.5000	15.8336
636.0000	15.6228
636.5000	15.2291
637.0000	15.0511
637.5000	14.8221
638.0000	14.4612
638.5000	14.3632
639.0000	14.2314
639.5000	13.9918
640.0000	13.7901
640.5000	13.4824
641.0000	13.2989
641.5000	13.1238
642.0000	12.8666
642.5000	12.7661
643.0000	12.4744
643.5000	12.2601
644.0000	12.2074
644.5000	11.8442
645.0000	11.7024
645.5000	11.6348
646.0000	11.4276
646.5000	11.2855
647.0000	10.9756
647.5000	10.7935
648.0000	10.7122
648.5000	10.5972
649.0000	10.3954
649.5000	10.2116
650.0000	9.91054
650.5000	9.89456
651.0000	9.79055
651.5000	9.58875
652.0000	9.46885
652.5000	9.30816
653.0000	9.14127
653.5000	8.99581
654.0000	8.87383
654.5000	8.81196
655.0000	8.5925
655.5000	8.45933
656.0000	8.34553
656.5000	8.20149
657.0000	8.04655
657.5000	7.97385
658.0000	7.9063
658.5000	7.76848
659.0000	7.62709
659.5000	7.4446
660.0000	7.43023
660.5000	7.34816
661.0000	7.15584
661.5000	7.03252
662.0000	6.8535
662.5000	6.7507
663.0000	6.68846
663.5000	6.63795
664.0000	6.50436
664.5000	6.35109
665.0000	6.2895
665.5000	6.18839
666.0000	6.08147
666.5000	5.98556
667.0000	5.96855
667.5000	5.81865
668.0000	5.7509
668.5000	5.62548
669.0000	5.5618
669.5000	5.43992
670.0000	5.36386
670.5000	5.33479
671.0000	5.21124
671.5000	5.13833
672.0000	5.06168
672.5000	4.95238
673.0000	4.86914
673.5000	4.84214
674.0000	4.80049
674.5000	4.62316
675.0000	4.57627
675.5000	4.51728
676.0000	4.39559
676.5000	4.35099
677.0000	4.34972
677.5000	4.27824
678.0000	4.29027
678.5000	4.13412
679.0000	4.06271
679.5000	3.97969
680.0000	3.99236
680.5000	3.83879
681.0000	3.7842
681.5000	3.73578
682.0000	3.69093
682.5000	3.593
683.0000	3.55981
683.5000	3.51637
684.0000	3.43633
684.5000	3.34572
685.0000	3.33107
685.5000	3.35456
686.0000	3.26753
686.5000	3.24477
687.0000	3.21003
687.5000	3.1128
688.0000	2.98607
688.5000	3.02118
689.0000	2.9577
689.5000	2.92891
690.0000	2.93488
690.5000	2.78517
691.0000	2.76642
691.5000	2.71306
692.0000	2.67808
692.5000	2.63131
693.0000	2.57446
693.5000	2.57808
694.0000	2.54891
694.5000	2.46818
695.0000	2.4614
695.5000	2.41985
696.0000	2.38418
696.5000	2.3146
697.0000	2.29337
697.5000	2.27539
698.0000	2.22952
698.5000	2.22686
699.0000	2.19106
699.5000	2.16137
700.0000	2.09623

##### Extended Information
[コメント情報]
試料名
コメント
測定者
所属
会社	関西大学

[データ情報]
作成日時	2025/02/07 11:28

データタイプ	等間隔データ
横軸	Wavelength [nm]
縦軸	Int.
スタート	448 nm
エンド	700 nm
データ間隔	0.5 nm
データ数	505     

[測定情報]
機種名	FP-8300
シリアル番号	C037361450
  Ex側フォルダ	なし
  Em側フォルダ	なし

付属品名	SCE-846
付属品シリアルNo.	C037361450

測定日時	2025/02/07 11:28

測定モード	蛍光
励起側バンド幅	5 nm
蛍光側バンド幅	5 nm
レスポンス	0.1 sec
感度	Low
測定範囲	448 - 700 nm
データ取込間隔	0.5 nm
励起波長	448.0 nm
走査速度	500 nm/min
オートゲイン	Off
自動シャッタ制御	測定時のみ開く
光源	キセノンランプ
フィルタ	交換時にスキャンを停止する
ブランク補正	Off

