TITLE	
DATA TYPE	FLUORESCENCE SPECTRUM
ORIGIN	JASCO
OWNER	
DATE	25/02/07
TIME	12:31:12
SPECTROMETER/DATA SYSTEM	
LOCALE	1041
RESOLUTION	
DELTAX	0.5
XUNITS	NANOMETERS
YUNITS	INTENSITY
FIRSTX	  448.0000
LASTX	  700.0000
NPOINTS	     505
FIRSTY	   671.46350
MAXY	  1719.75623
MINY	     1.47154
XYDATA
448.0000	671.464
448.5000	733.23
449.0000	798.463
449.5000	867.364
450.0000	937.568
450.5000	1008.4
451.0000	1080.16
451.5000	1152.1
452.0000	1225.9
452.5000	1297.71
453.0000	1364.79
453.5000	1429.6
454.0000	1489.86
454.5000	1543.68
455.0000	1590.34
455.5000	1628.23
456.0000	1659.88
456.5000	1685.52
457.0000	1704.72
457.5000	1715.98
458.0000	1719.76
458.5000	1718.92
459.0000	1711.19
459.5000	1700.33
460.0000	1685.02
460.5000	1664.52
461.0000	1641.57
461.5000	1614.44
462.0000	1584.7
462.5000	1553.2
463.0000	1518.33
463.5000	1483.51
464.0000	1448.66
464.5000	1411.46
465.0000	1371.84
465.5000	1331.82
466.0000	1292.72
466.5000	1254.85
467.0000	1216.71
467.5000	1179.57
468.0000	1142.58
468.5000	1107.31
469.0000	1072.51
469.5000	1039.63
470.0000	1008.79
470.5000	979.522
471.0000	951.118
471.5000	926.316
472.0000	903.794
472.5000	884.058
473.0000	865.134
473.5000	849.973
474.0000	837.921
474.5000	827.659
475.0000	821.26
475.5000	818.432
476.0000	818.382
476.5000	821.089
477.0000	826.346
477.5000	833.151
478.0000	843.931
478.5000	856.807
479.0000	871.819
479.5000	888.939
480.0000	907.073
480.5000	925.767
481.0000	944.604
481.5000	964.435
482.0000	985.12
482.5000	1005.41
483.0000	1024.52
483.5000	1041.51
484.0000	1057.69
484.5000	1072.44
485.0000	1084.8
485.5000	1097.07
486.0000	1106.02
486.5000	1113.19
487.0000	1118.95
487.5000	1121.05
488.0000	1121.21
488.5000	1119.78
489.0000	1116.2
489.5000	1108.7
490.0000	1099
490.5000	1086.57
491.0000	1070.63
491.5000	1053.55
492.0000	1033.31
492.5000	1009.63
493.0000	985.667
493.5000	960.62
494.0000	932.845
494.5000	904.723
495.0000	876.198
495.5000	846.324
496.0000	816.737
496.5000	787.05
497.0000	756.903
497.5000	727.728
498.0000	700.025
498.5000	672.663
499.0000	646.332
499.5000	619.698
500.0000	595.19
500.5000	571.22
501.0000	548.923
501.5000	527.522
502.0000	507.275
502.5000	488.499
503.0000	470.392
503.5000	452.741
504.0000	437.009
504.5000	421.724
505.0000	407.97
505.5000	395.198
506.0000	383.622
506.5000	373.555
507.0000	364.119
507.5000	354.924
508.0000	346.934
508.5000	339.316
509.0000	332.586
509.5000	327.539
510.0000	322.568
510.5000	317.819
511.0000	313.855
511.5000	311.089
512.0000	307.714
512.5000	305.197
513.0000	303.16
513.5000	301.99
514.0000	300.998
514.5000	299.704
515.0000	298.765
515.5000	298.484
516.0000	298.313
516.5000	298.708
517.0000	298.798
517.5000	298.872
518.0000	299.089
518.5000	299.477
519.0000	300.667
519.5000	300.649
520.0000	300.807
520.5000	301.623
521.0000	301.917
521.5000	302.291
522.0000	302.573
522.5000	303.146
523.0000	303.125
523.5000	302.789
524.0000	302.379
524.5000	301.815
525.0000	301.717
525.5000	301.516
526.0000	301.096
526.5000	300.302
527.0000	298.871
527.5000	297.399
528.0000	295.555
528.5000	293.796
529.0000	292.374
529.5000	290.563
530.0000	288.021
530.5000	286.492
531.0000	283.468
531.5000	280.832
532.0000	277.712
532.5000	274.435
533.0000	271.476
533.5000	268.426
534.0000	265.062
534.5000	261.467
535.0000	257.636
535.5000	253.645
536.0000	249.931
536.5000	246.496
537.0000	242.873
537.5000	238.338
538.0000	234.486
538.5000	230.461
539.0000	226.509
539.5000	222.86
540.0000	219.167
540.5000	214.873
541.0000	211.034
541.5000	207.119
542.0000	203.104
542.5000	199.516
543.0000	196.408
543.5000	193.229
544.0000	189.697
544.5000	186.601
545.0000	183.295
545.5000	180.092
546.0000	177.361
546.5000	174.523
547.0000	171.675
547.5000	169.033
548.0000	166.265
548.5000	163.969
549.0000	161.248
549.5000	159.035
550.0000	156.966
550.5000	154.702
551.0000	152.505
551.5000	150.557
552.0000	148.642
552.5000	146.692
553.0000	144.797
553.5000	143.261
554.0000	141.383
554.5000	139.727
555.0000	138.601
555.5000	137.112
556.0000	135.492
556.5000	134.162
557.0000	132.931
557.5000	131.687
558.0000	129.809
558.5000	128.525
559.0000	127.605
559.5000	126.355
560.0000	124.904
560.5000	123.589
561.0000	122.413
561.5000	121.547
562.0000	120.31
562.5000	119.067
563.0000	117.874
563.5000	116.666
564.0000	115.407
564.5000	114.474
565.0000	113.213
565.5000	111.554
566.0000	110.213
566.5000	109.192
567.0000	108.123
567.5000	106.834
568.0000	105.635
568.5000	104.415
569.0000	103.104
569.5000	101.76
570.0000	100.415
570.5000	99.1949
571.0000	97.9638
571.5000	96.8228
572.0000	95.4996
572.5000	93.9028
573.0000	92.8715
573.5000	91.6696
574.0000	90.3361
574.5000	88.7921
575.0000	87.3046
575.5000	86.371
576.0000	85.0526
576.5000	83.22
577.0000	82.0575
577.5000	80.8851
578.0000	79.6113
578.5000	78.3976
579.0000	77.2722
579.5000	76.1004
580.0000	74.6998
580.5000	73.4363
581.0000	72.2058
581.5000	71.2751
582.0000	69.9457
582.5000	68.8334
583.0000	67.6126
583.5000	66.5062
584.0000	65.5401
584.5000	64.5076
585.0000	63.5322
585.5000	62.2693
586.0000	61.0408
586.5000	60.1221
587.0000	59.2456
587.5000	58.1858
588.0000	57.0564
588.5000	56.0431
589.0000	55.306
589.5000	54.3254
590.0000	53.3904
590.5000	52.6935
591.0000	51.8064
591.5000	50.9547
592.0000	50.0401
592.5000	49.3018
593.0000	48.6893
593.5000	47.5449
594.0000	46.7216
594.5000	45.8876
595.0000	45.4557
595.5000	44.6734
596.0000	43.9742
596.5000	43.2706
597.0000	42.6417
597.5000	41.8386
598.0000	41.2825
598.5000	40.8068
599.0000	40.255
599.5000	39.4913
600.0000	38.9539
600.5000	38.4395
601.0000	37.903
601.5000	37.1274
602.0000	36.6054
602.5000	36.1081
603.0000	35.7499
603.5000	35.2566
604.0000	34.6544
604.5000	33.9497
605.0000	33.5016
605.5000	32.9587
606.0000	32.6259
606.5000	32.2524
607.0000	31.7753
607.5000	31.3101
608.0000	30.8331
608.5000	30.2761
609.0000	29.7768
609.5000	29.5299
610.0000	29.0165
610.5000	28.663
611.0000	28.1605
611.5000	27.7936
612.0000	27.3091
612.5000	26.9752
613.0000	26.6375
613.5000	26.2443
614.0000	26.0037
614.5000	25.6859
615.0000	25.1289
615.5000	24.7881
616.0000	24.2705
616.5000	23.8442
617.0000	23.6123
617.5000	23.3756
618.0000	23.0175
618.5000	22.6721
619.0000	22.3315
619.5000	21.9123
620.0000	21.7966
620.5000	21.385
621.0000	21.065
621.5000	20.6781
622.0000	20.2903
622.5000	19.8618
623.0000	19.5591
623.5000	19.4253
624.0000	19.116
624.5000	18.8118
625.0000	18.5203
625.5000	18.1876
626.0000	18.0358
626.5000	17.6133
627.0000	17.3581
627.5000	17.2064
628.0000	16.8695
628.5000	16.4773
629.0000	16.2145
629.5000	16.0186
630.0000	15.8016
630.5000	15.6017
631.0000	15.4754
631.5000	15.0954
632.0000	14.9134
632.5000	14.5894
633.0000	14.2964
633.5000	14.0385
634.0000	13.8548
634.5000	13.6054
635.0000	13.4531
635.5000	13.1767
636.0000	13.0157
636.5000	12.75
637.0000	12.6279
637.5000	12.4136
638.0000	12.1492
638.5000	12.1026
639.0000	11.7935
639.5000	11.5769
640.0000	11.3749
640.5000	11.0944
641.0000	10.8771
641.5000	10.7373
642.0000	10.6429
642.5000	10.5362
643.0000	10.3429
643.5000	10.0364
644.0000	9.88102
644.5000	9.7368
645.0000	9.69695
645.5000	9.45392
646.0000	9.26959
646.5000	9.07926
647.0000	8.9546
647.5000	8.91097
648.0000	8.68252
648.5000	8.64547
649.0000	8.44924
649.5000	8.26126
650.0000	8.10791
650.5000	7.9857
651.0000	7.84789
651.5000	7.67128
652.0000	7.5317
652.5000	7.43836
653.0000	7.34874
653.5000	7.23945
654.0000	7.13718
654.5000	7.0644
655.0000	6.93099
655.5000	6.76343
656.0000	6.66274
656.5000	6.58142
657.0000	6.45931
657.5000	6.42175
658.0000	6.26612
658.5000	6.12954
659.0000	6.14221
659.5000	6.00635
660.0000	5.78862
660.5000	5.72351
661.0000	5.63301
661.5000	5.6103
662.0000	5.46619
662.5000	5.32196
663.0000	5.1871
663.5000	5.19881
664.0000	5.04103
664.5000	4.95948
665.0000	4.8987
665.5000	4.85051
666.0000	4.79242
666.5000	4.76137
667.0000	4.66747
667.5000	4.57638
668.0000	4.44537
668.5000	4.32518
669.0000	4.23486
669.5000	4.16939
670.0000	4.14834
670.5000	4.09506
671.0000	4.00596
671.5000	3.98195
672.0000	3.9088
672.5000	3.88657
673.0000	3.8014
673.5000	3.69399
674.0000	3.67322
674.5000	3.60449
675.0000	3.51252
675.5000	3.46688
676.0000	3.37156
676.5000	3.32001
677.0000	3.32227
677.5000	3.25007
678.0000	3.18884
678.5000	3.04972
679.0000	3.0715
679.5000	3.02278
680.0000	2.97061
680.5000	2.94532
681.0000	2.89846
681.5000	2.81828
682.0000	2.76524
682.5000	2.72785
683.0000	2.66197
683.5000	2.66778
684.0000	2.59428
684.5000	2.49728
685.0000	2.45384
685.5000	2.43943
686.0000	2.43326
686.5000	2.36765
687.0000	2.29139
687.5000	2.2517
688.0000	2.25514
688.5000	2.16966
689.0000	2.12617
689.5000	2.10253
690.0000	2.07459
690.5000	2.02173
691.0000	1.97645
691.5000	1.96894
692.0000	1.89648
692.5000	1.86267
693.0000	1.84818
693.5000	1.84132
694.0000	1.83155
694.5000	1.7959
695.0000	1.72579
695.5000	1.71863
696.0000	1.69119
696.5000	1.62712
697.0000	1.60578
697.5000	1.58649
698.0000	1.56261
698.5000	1.54858
699.0000	1.55394
699.5000	1.47154
700.0000	1.48515

##### Extended Information
[コメント情報]
試料名
コメント
測定者
所属
会社	関西大学

[データ情報]
作成日時	2025/02/07 12:31

データタイプ	等間隔データ
横軸	Wavelength [nm]
縦軸	Int.
スタート	448 nm
エンド	700 nm
データ間隔	0.5 nm
データ数	505     

[測定情報]
機種名	FP-8300
シリアル番号	C037361450
  Ex側フォルダ	なし
  Em側フォルダ	なし

付属品名	SCE-846
付属品シリアルNo.	C037361450

測定日時	2025/02/07 12:31

測定モード	蛍光
励起側バンド幅	5 nm
蛍光側バンド幅	5 nm
レスポンス	0.1 sec
感度	Low
測定範囲	448 - 700 nm
データ取込間隔	0.5 nm
励起波長	448.0 nm
走査速度	500 nm/min
オートゲイン	Off
自動シャッタ制御	測定時のみ開く
光源	キセノンランプ
フィルタ	交換時にスキャンを停止する
ブランク補正	Off

