TITLE	
DATA TYPE	FLUORESCENCE SPECTRUM
ORIGIN	JASCO
OWNER	
DATE	25/04/23
TIME	16:01:52
SPECTROMETER/DATA SYSTEM	
LOCALE	1041
RESOLUTION	
DELTAX	0.5
XUNITS	NANOMETERS
YUNITS	INTENSITY
FIRSTX	  446.0000
LASTX	  700.0000
NPOINTS	     509
FIRSTY	   160.28938
MAXY	   160.28938
MINY	     0.82572
XYDATA
446.0000	160.289
446.5000	151.151
447.0000	137.995
447.5000	123.463
448.0000	108.576
448.5000	94.7991
449.0000	83.2609
449.5000	73.4373
450.0000	66.1312
450.5000	61.8437
451.0000	58.8251
451.5000	57.0155
452.0000	56.3093
452.5000	56.1594
453.0000	55.9249
453.5000	55.8162
454.0000	55.5888
454.5000	55.3561
455.0000	54.8078
455.5000	54.1634
456.0000	53.6058
456.5000	52.8042
457.0000	52.0768
457.5000	51.0597
458.0000	49.9528
458.5000	48.9564
459.0000	48.1065
459.5000	46.8024
460.0000	45.4838
460.5000	44.5705
461.0000	43.422
461.5000	42.1785
462.0000	41.0798
462.5000	39.9007
463.0000	38.7617
463.5000	37.612
464.0000	36.563
464.5000	35.8441
465.0000	34.8319
465.5000	34.0729
466.0000	33.4003
466.5000	32.5227
467.0000	31.8948
467.5000	31.2814
468.0000	30.7498
468.5000	30.4611
469.0000	29.9624
469.5000	29.6861
470.0000	29.4399
470.5000	29.3982
471.0000	29.3724
471.5000	29.5262
472.0000	29.7879
472.5000	30.0425
473.0000	30.4561
473.5000	30.8759
474.0000	31.3378
474.5000	32.0594
475.0000	32.7248
475.5000	33.4202
476.0000	33.9294
476.5000	34.4199
477.0000	35.0187
477.5000	35.5212
478.0000	35.9382
478.5000	36.4202
479.0000	37.1621
479.5000	37.6566
480.0000	37.8707
480.5000	37.8248
481.0000	37.8392
481.5000	38.0515
482.0000	38.3427
482.5000	38.3834
483.0000	38.4082
483.5000	38.036
484.0000	37.9355
484.5000	38.0241
485.0000	37.6984
485.5000	37.3131
486.0000	36.853
486.5000	36.409
487.0000	36.1187
487.5000	35.5927
488.0000	34.8738
488.5000	34.4353
489.0000	34.1342
489.5000	33.2645
490.0000	32.7008
490.5000	31.8799
491.0000	31.118
491.5000	30.4979
492.0000	29.5456
492.5000	28.7838
493.0000	28.2011
493.5000	27.3355
494.0000	26.4957
494.5000	25.5655
495.0000	25.0032
495.5000	24.1708
496.0000	23.193
496.5000	22.3707
497.0000	21.489
497.5000	20.7701
498.0000	20.142
498.5000	19.6005
499.0000	19.0889
499.5000	18.3321
500.0000	17.8109
500.5000	17.2889
501.0000	16.7489
501.5000	16.3311
502.0000	16.025
502.5000	15.6628
503.0000	15.2942
503.5000	14.9166
504.0000	14.7131
504.5000	14.3895
505.0000	14.1412
505.5000	13.8952
506.0000	13.769
506.5000	13.7386
507.0000	13.5526
507.5000	13.5231
508.0000	13.4545
508.5000	13.4493
509.0000	13.3197
509.5000	13.3433
510.0000	13.458
510.5000	13.5086
511.0000	13.4432
511.5000	13.4515
512.0000	13.5629
512.5000	13.5684
513.0000	13.4383
513.5000	13.4683
514.0000	13.4481
514.5000	13.3663
515.0000	13.3472
515.5000	13.2691
516.0000	13.1604
516.5000	13.1539
517.0000	13.1217
517.5000	12.9588
518.0000	12.9234
518.5000	12.883
519.0000	12.7184
519.5000	12.5216
520.0000	12.4997
520.5000	12.6002
521.0000	12.4419
521.5000	12.3955
522.0000	12.3289
522.5000	12.3802
523.0000	12.2749
523.5000	12.1914
524.0000	12.0363
524.5000	12.059
525.0000	12.1244
525.5000	12.1006
526.0000	11.9563
526.5000	11.9006
527.0000	11.852
527.5000	11.7177
528.0000	11.7559
528.5000	11.7499
529.0000	11.6088
529.5000	11.5187
530.0000	11.4713
530.5000	11.5191
531.0000	11.4242
531.5000	11.1612
532.0000	11.204
532.5000	11.2692
533.0000	11.2507
533.5000	11.1399
534.0000	11.106
534.5000	11.0213
535.0000	10.9305
535.5000	10.9379
536.0000	10.8465
536.5000	10.716
537.0000	10.6174
537.5000	10.6844
538.0000	10.6963
538.5000	10.5984
539.0000	10.4827
539.5000	10.4434
540.0000	10.424
540.5000	10.4128
541.0000	10.3022
541.5000	10.2988
542.0000	10.2386
542.5000	10.2816
543.0000	10.2096
543.5000	10.2337
544.0000	10.1769
544.5000	10.0614
545.0000	10.028
545.5000	10.0762
546.0000	10.0701
546.5000	10.0061
547.0000	9.90186
547.5000	9.88573
548.0000	9.95117
548.5000	9.93561
549.0000	9.87476
549.5000	9.81498
550.0000	9.79386
550.5000	9.77602
551.0000	9.7122
551.5000	9.76453
552.0000	9.73492
552.5000	9.61385
553.0000	9.61239
553.5000	9.61271
554.0000	9.54576
554.5000	9.51781
555.0000	9.51987
555.5000	9.4231
556.0000	9.45885
556.5000	9.42591
557.0000	9.38904
557.5000	9.3187
558.0000	9.32831
558.5000	9.28961
559.0000	9.23525
559.5000	9.11896
560.0000	9.1044
560.5000	9.14076
561.0000	9.18396
561.5000	9.0851
562.0000	9.0043
562.5000	8.98433
563.0000	8.89071
563.5000	8.81187
564.0000	8.8546
564.5000	8.88038
565.0000	8.7697
565.5000	8.73893
566.0000	8.74835
566.5000	8.65464
567.0000	8.6096
567.5000	8.51234
568.0000	8.51065
568.5000	8.52833
569.0000	8.40948
569.5000	8.29589
570.0000	8.25413
570.5000	8.24158
571.0000	8.23089
571.5000	8.28082
572.0000	8.21364
572.5000	8.21604
573.0000	8.11528
573.5000	8.09296
574.0000	8.11559
574.5000	8.07363
575.0000	8.00836
575.5000	7.9495
576.0000	7.9906
576.5000	7.94541
577.0000	7.85481
577.5000	7.79221
578.0000	7.75157
578.5000	7.78666
579.0000	7.72903
579.5000	7.71579
580.0000	7.71158
580.5000	7.67365
581.0000	7.70229
581.5000	7.62191
582.0000	7.6235
582.5000	7.54277
583.0000	7.50457
583.5000	7.49922
584.0000	7.43963
584.5000	7.39696
585.0000	7.38079
585.5000	7.32559
586.0000	7.35327
586.5000	7.4175
587.0000	7.29397
587.5000	7.2611
588.0000	7.23778
588.5000	7.22232
589.0000	7.20951
589.5000	7.09943
590.0000	7.11988
590.5000	7.13969
591.0000	7.07981
591.5000	6.98872
592.0000	6.99873
592.5000	6.91802
593.0000	6.9075
593.5000	6.85472
594.0000	6.75159
594.5000	6.8076
595.0000	6.70512
595.5000	6.64861
596.0000	6.68691
596.5000	6.60945
597.0000	6.46213
597.5000	6.39773
598.0000	6.43417
598.5000	6.48435
599.0000	6.40136
599.5000	6.34486
600.0000	6.37634
600.5000	6.27286
601.0000	6.13026
601.5000	6.11957
602.0000	6.07958
602.5000	6.03575
603.0000	6.00271
603.5000	5.9939
604.0000	5.89647
604.5000	5.85259
605.0000	5.84569
605.5000	5.76064
606.0000	5.68726
606.5000	5.6803
607.0000	5.65558
607.5000	5.57028
608.0000	5.48915
608.5000	5.43298
609.0000	5.44681
609.5000	5.39266
610.0000	5.33164
610.5000	5.28065
611.0000	5.21305
611.5000	5.14065
612.0000	5.17484
612.5000	5.11715
613.0000	4.99403
613.5000	4.98126
614.0000	4.94595
614.5000	4.89654
615.0000	4.88529
615.5000	4.86312
616.0000	4.80256
616.5000	4.70647
617.0000	4.69577
617.5000	4.61222
618.0000	4.61542
618.5000	4.54489
619.0000	4.47304
619.5000	4.47034
620.0000	4.42325
620.5000	4.4363
621.0000	4.28436
621.5000	4.25258
622.0000	4.15895
622.5000	4.21466
623.0000	4.20766
623.5000	4.14765
624.0000	4.04647
624.5000	4.0118
625.0000	4.0332
625.5000	3.97251
626.0000	3.95842
626.5000	3.95108
627.0000	3.86625
627.5000	3.83106
628.0000	3.81442
628.5000	3.82649
629.0000	3.82163
629.5000	3.79049
630.0000	3.68478
630.5000	3.61306
631.0000	3.57152
631.5000	3.60335
632.0000	3.55288
632.5000	3.48811
633.0000	3.44355
633.5000	3.45631
634.0000	3.40511
634.5000	3.36733
635.0000	3.38191
635.5000	3.35198
636.0000	3.29042
636.5000	3.27458
637.0000	3.23196
637.5000	3.20979
638.0000	3.13898
638.5000	3.06907
639.0000	3.06789
639.5000	3.02756
640.0000	3.06298
640.5000	3.07458
641.0000	3.00702
641.5000	2.9691
642.0000	2.97167
642.5000	2.90391
643.0000	2.86495
643.5000	2.87735
644.0000	2.8716
644.5000	2.80213
645.0000	2.77655
645.5000	2.80134
646.0000	2.79432
646.5000	2.74578
647.0000	2.66267
647.5000	2.6116
648.0000	2.562
648.5000	2.54371
649.0000	2.59466
649.5000	2.56472
650.0000	2.5215
650.5000	2.46535
651.0000	2.48203
651.5000	2.47736
652.0000	2.41314
652.5000	2.37038
653.0000	2.40295
653.5000	2.35117
654.0000	2.30551
654.5000	2.29631
655.0000	2.27623
655.5000	2.2319
656.0000	2.20056
656.5000	2.21092
657.0000	2.23446
657.5000	2.15456
658.0000	2.08831
658.5000	2.07526
659.0000	2.10153
659.5000	2.11572
660.0000	2.05821
660.5000	2.03928
661.0000	2.0141
661.5000	1.99392
662.0000	1.92694
662.5000	1.89578
663.0000	1.92451
663.5000	1.9753
664.0000	1.91518
664.5000	1.85979
665.0000	1.85568
665.5000	1.88012
666.0000	1.82908
666.5000	1.81595
667.0000	1.82159
667.5000	1.77047
668.0000	1.73687
668.5000	1.74802
669.0000	1.69655
669.5000	1.64759
670.0000	1.64615
670.5000	1.64033
671.0000	1.60645
671.5000	1.58505
672.0000	1.58827
672.5000	1.58989
673.0000	1.56788
673.5000	1.54284
674.0000	1.52319
674.5000	1.50355
675.0000	1.47653
675.5000	1.48702
676.0000	1.48707
676.5000	1.45613
677.0000	1.40201
677.5000	1.42687
678.0000	1.4146
678.5000	1.3879
679.0000	1.36976
679.5000	1.31708
680.0000	1.29271
680.5000	1.31008
681.0000	1.28347
681.5000	1.24787
682.0000	1.2689
682.5000	1.2943
683.0000	1.2747
683.5000	1.25136
684.0000	1.23989
684.5000	1.23516
685.0000	1.20185
685.5000	1.21078
686.0000	1.15543
686.5000	1.15513
687.0000	1.15027
687.5000	1.13513
688.0000	1.13885
688.5000	1.09173
689.0000	1.06989
689.5000	1.07551
690.0000	1.07135
690.5000	1.03932
691.0000	0.985276
691.5000	1.01404
692.0000	1.02699
692.5000	1.04141
693.0000	1.01415
693.5000	1.0254
694.0000	1.00804
694.5000	0.986393
695.0000	0.975363
695.5000	0.956783
696.0000	0.927156
696.5000	0.973402
697.0000	0.948937
697.5000	0.912165
698.0000	0.915359
698.5000	0.872265
699.0000	0.864661
699.5000	0.879637
700.0000	0.825719

##### Extended Information
[コメント情報]
試料名
コメント
測定者
所属
会社	関西大学

[データ情報]
作成日時	2025/04/23 16:01

データタイプ	等間隔データ
横軸	Wavelength [nm]
縦軸	Int.
スタート	446 nm
エンド	700 nm
データ間隔	0.5 nm
データ数	509     

[測定情報]
機種名	FP-8300
シリアル番号	C037361450
  Ex側フォルダ	なし
  Em側フォルダ	なし

付属品名	SCE-846
付属品シリアルNo.	C037361450

測定日時	2025/04/23 16:01

測定モード	蛍光
励起側バンド幅	5 nm
蛍光側バンド幅	5 nm
レスポンス	0.1 sec
感度	Low
測定範囲	446 - 700 nm
データ取込間隔	0.5 nm
励起波長	446.0 nm
走査速度	500 nm/min
オートゲイン	Off
自動シャッタ制御	測定時のみ開く
光源	キセノンランプ
フィルタ	交換時にスキャンを停止する
ブランク補正	Off

