TITLE	
DATA TYPE	FLUORESCENCE SPECTRUM
ORIGIN	JASCO
OWNER	
DATE	25/03/31
TIME	11:51:48
SPECTROMETER/DATA SYSTEM	
LOCALE	1041
RESOLUTION	
DELTAX	0.5
XUNITS	NANOMETERS
YUNITS	INTENSITY
FIRSTX	  447.0000
LASTX	  700.0000
NPOINTS	     507
FIRSTY	   326.91592
MAXY	   832.04645
MINY	     2.02270
XYDATA
447.0000	326.916
447.5000	343.85
448.0000	362.193
448.5000	381.79
449.0000	404.193
449.5000	429.521
450.0000	458.909
450.5000	490.351
451.0000	525.031
451.5000	561.298
452.0000	597.733
452.5000	633.936
453.0000	668.159
453.5000	699.475
454.0000	727.197
454.5000	753.282
455.0000	775.936
455.5000	794.488
456.0000	808.733
456.5000	818.387
457.0000	825.889
457.5000	830.681
458.0000	832.046
458.5000	830.696
459.0000	825.68
459.5000	818.853
460.0000	810.357
460.5000	799.862
461.0000	788.064
461.5000	774.854
462.0000	760.052
462.5000	744.663
463.0000	728.555
463.5000	710.509
464.0000	693.555
464.5000	675.62
465.0000	657.201
465.5000	638.432
466.0000	618.558
466.5000	600.275
467.0000	583.319
467.5000	566.374
468.0000	548.728
468.5000	531.734
469.0000	516.088
469.5000	501.054
470.0000	486.104
470.5000	471.957
471.0000	459.566
471.5000	448.348
472.0000	437.609
472.5000	427.993
473.0000	419.311
473.5000	412.201
474.0000	406.672
474.5000	402.825
475.0000	399.384
475.5000	398.194
476.0000	397.665
476.5000	398.715
477.0000	401.865
477.5000	405.034
478.0000	409.755
478.5000	415.995
479.0000	423.227
479.5000	430.675
480.0000	438.567
480.5000	446.885
481.0000	455.203
481.5000	465.201
482.0000	474.653
482.5000	483.481
483.0000	492.508
483.5000	501.461
484.0000	508.725
484.5000	515.545
485.0000	520.693
485.5000	525.712
486.0000	530.311
486.5000	533.929
487.0000	537.124
487.5000	538.894
488.0000	538.593
488.5000	537.552
489.0000	535.865
489.5000	532.556
490.0000	528.346
490.5000	523.036
491.0000	515.038
491.5000	506.684
492.0000	497.174
492.5000	486.493
493.0000	475.293
493.5000	463.401
494.0000	450.683
494.5000	437.308
495.0000	423.483
495.5000	408.855
496.0000	395.123
496.5000	381.388
497.0000	367.772
497.5000	354.358
498.0000	340.724
498.5000	327.944
499.0000	315.502
499.5000	303.187
500.0000	292.151
500.5000	280.484
501.0000	269.994
501.5000	260.611
502.0000	251.204
502.5000	242.213
503.0000	233.002
503.5000	224.689
504.0000	217.717
504.5000	211.09
505.0000	204.786
505.5000	198.669
506.0000	192.983
506.5000	188.053
507.0000	183.637
507.5000	179.59
508.0000	175.765
508.5000	172.502
509.0000	169.994
509.5000	167.451
510.0000	165.283
510.5000	163.085
511.0000	160.932
511.5000	159.457
512.0000	158.364
512.5000	157.128
513.0000	156.49
513.5000	155.897
514.0000	154.904
514.5000	154.437
515.0000	153.791
515.5000	153.555
516.0000	153.525
516.5000	153.692
517.0000	154.097
517.5000	153.669
518.0000	153.948
518.5000	154.449
519.0000	154.954
519.5000	154.921
520.0000	155.391
520.5000	155.384
521.0000	155.196
521.5000	155.549
522.0000	156.217
522.5000	155.958
523.0000	156.262
523.5000	156.165
524.0000	156.253
524.5000	156.034
525.0000	155.847
525.5000	155.77
526.0000	155.315
526.5000	155.033
527.0000	154.453
527.5000	153.735
528.0000	153.154
528.5000	152.611
529.0000	151.915
529.5000	151.077
530.0000	150.249
530.5000	149.834
531.0000	148.58
531.5000	147.31
532.0000	146.054
532.5000	144.374
533.0000	142.836
533.5000	141.97
534.0000	140.433
534.5000	139.193
535.0000	137.989
535.5000	136.066
536.0000	134.066
536.5000	132.911
537.0000	131.319
537.5000	129.923
538.0000	128.421
538.5000	126.611
539.0000	125.019
539.5000	123.662
540.0000	121.712
540.5000	120.064
541.0000	118.34
541.5000	116.808
542.0000	115.398
542.5000	113.899
543.0000	112.619
543.5000	110.849
544.0000	109.381
544.5000	108.05
545.0000	106.765
545.5000	105.644
546.0000	104.421
546.5000	103.17
547.0000	102.357
547.5000	101.295
548.0000	100.062
548.5000	98.9413
549.0000	97.882
549.5000	97.1125
550.0000	96.3059
550.5000	95.3176
551.0000	94.649
551.5000	93.6724
552.0000	92.7012
552.5000	92.0024
553.0000	91.4832
553.5000	90.9023
554.0000	90.095
554.5000	89.3144
555.0000	88.6219
555.5000	88.0443
556.0000	87.6075
556.5000	86.8582
557.0000	85.8774
557.5000	85.3501
558.0000	85.0882
558.5000	84.5463
559.0000	83.7644
559.5000	83.6543
560.0000	83.2999
560.5000	82.6004
561.0000	81.691
561.5000	80.9032
562.0000	80.5767
562.5000	80.2385
563.0000	79.9084
563.5000	79.103
564.0000	78.4308
564.5000	77.8316
565.0000	77.2315
565.5000	76.6691
566.0000	76.2493
566.5000	75.5673
567.0000	74.8023
567.5000	74.0062
568.0000	73.5166
568.5000	72.858
569.0000	72.4387
569.5000	71.717
570.0000	71.1963
570.5000	70.4949
571.0000	69.8011
571.5000	68.8767
572.0000	68.2404
572.5000	67.5757
573.0000	67.0914
573.5000	66.4198
574.0000	65.3422
574.5000	64.7629
575.0000	64.1108
575.5000	63.2082
576.0000	62.6746
576.5000	62.0168
577.0000	61.3778
577.5000	60.86
578.0000	60.1047
578.5000	59.2274
579.0000	58.3623
579.5000	57.7188
580.0000	57.1362
580.5000	56.4369
581.0000	55.5614
581.5000	54.9845
582.0000	54.293
582.5000	53.4155
583.0000	53.0449
583.5000	52.3007
584.0000	51.6495
584.5000	51.039
585.0000	50.3186
585.5000	49.6526
586.0000	49.0005
586.5000	48.4182
587.0000	47.6672
587.5000	47.2118
588.0000	46.6921
588.5000	46.0151
589.0000	45.3292
589.5000	44.8436
590.0000	44.2173
590.5000	43.488
591.0000	42.9359
591.5000	42.6122
592.0000	41.9397
592.5000	41.4441
593.0000	41.167
593.5000	40.6619
594.0000	40.0293
594.5000	39.5121
595.0000	38.9843
595.5000	38.4865
596.0000	38.1991
596.5000	37.5804
597.0000	37.1088
597.5000	36.5339
598.0000	36.0956
598.5000	35.8462
599.0000	35.3655
599.5000	34.6506
600.0000	34.0711
600.5000	33.7852
601.0000	33.5218
601.5000	33.0466
602.0000	32.6918
602.5000	32.0654
603.0000	31.813
603.5000	31.5557
604.0000	31.1449
604.5000	30.7752
605.0000	30.4824
605.5000	30.1237
606.0000	29.6836
606.5000	29.2723
607.0000	28.9207
607.5000	28.4523
608.0000	28.2273
608.5000	27.9022
609.0000	27.4742
609.5000	27.2848
610.0000	26.8054
610.5000	26.6133
611.0000	26.2281
611.5000	25.7836
612.0000	25.4495
612.5000	25.1853
613.0000	24.8565
613.5000	24.7124
614.0000	24.3401
614.5000	23.9917
615.0000	23.6728
615.5000	23.2748
616.0000	23.0739
616.5000	22.8148
617.0000	22.4153
617.5000	22.2024
618.0000	21.9556
618.5000	21.4583
619.0000	21.1924
619.5000	20.9262
620.0000	20.7095
620.5000	20.5147
621.0000	20.2088
621.5000	19.9728
622.0000	19.609
622.5000	19.31
623.0000	19.1737
623.5000	18.9147
624.0000	18.5513
624.5000	18.3402
625.0000	18.153
625.5000	17.8604
626.0000	17.7363
626.5000	17.4199
627.0000	17.1044
627.5000	16.8453
628.0000	16.6901
628.5000	16.4054
629.0000	16.2344
629.5000	15.9794
630.0000	15.7212
630.5000	15.5112
631.0000	15.1643
631.5000	15.0029
632.0000	14.7879
632.5000	14.6476
633.0000	14.3741
633.5000	14.1094
634.0000	13.9729
634.5000	13.784
635.0000	13.5677
635.5000	13.499
636.0000	13.288
636.5000	13.0128
637.0000	12.8909
637.5000	12.6064
638.0000	12.5024
638.5000	12.2538
639.0000	12.1481
639.5000	11.917
640.0000	11.7021
640.5000	11.6031
641.0000	11.4728
641.5000	11.237
642.0000	10.9927
642.5000	10.9551
643.0000	10.7451
643.5000	10.5097
644.0000	10.4864
644.5000	10.3048
645.0000	10.203
645.5000	10.0367
646.0000	9.89834
646.5000	9.69457
647.0000	9.62887
647.5000	9.48646
648.0000	9.33531
648.5000	9.17308
649.0000	9.03926
649.5000	8.97431
650.0000	8.85732
650.5000	8.68686
651.0000	8.46703
651.5000	8.37885
652.0000	8.31739
652.5000	8.14736
653.0000	8.0614
653.5000	8.00813
654.0000	7.84818
654.5000	7.71462
655.0000	7.57725
655.5000	7.54505
656.0000	7.352
656.5000	7.18735
657.0000	7.14151
657.5000	6.97716
658.0000	6.88433
658.5000	6.86788
659.0000	6.71929
659.5000	6.61019
660.0000	6.51467
660.5000	6.37899
661.0000	6.3325
661.5000	6.34905
662.0000	6.24132
662.5000	6.05744
663.0000	5.92756
663.5000	5.98941
664.0000	5.88497
664.5000	5.79425
665.0000	5.67695
665.5000	5.51215
666.0000	5.42008
666.5000	5.41082
667.0000	5.30518
667.5000	5.12713
668.0000	5.10919
668.5000	5.04097
669.0000	5.01393
669.5000	4.92766
670.0000	4.80947
670.5000	4.8016
671.0000	4.71038
671.5000	4.58754
672.0000	4.5151
672.5000	4.555
673.0000	4.4606
673.5000	4.47815
674.0000	4.3495
674.5000	4.22963
675.0000	4.17299
675.5000	4.11619
676.0000	4.07596
676.5000	4.02113
677.0000	3.94689
677.5000	3.84396
678.0000	3.80949
678.5000	3.78877
679.0000	3.67425
679.5000	3.65682
680.0000	3.61494
680.5000	3.56076
681.0000	3.47381
681.5000	3.40585
682.0000	3.39355
682.5000	3.26681
683.0000	3.23808
683.5000	3.19921
684.0000	3.18978
684.5000	3.1324
685.0000	3.10011
685.5000	3.05697
686.0000	3.02722
686.5000	3.00152
687.0000	2.9263
687.5000	2.89071
688.0000	2.87918
688.5000	2.79848
689.0000	2.77288
689.5000	2.67877
690.0000	2.63637
690.5000	2.66972
691.0000	2.61646
691.5000	2.57358
692.0000	2.53586
692.5000	2.52895
693.0000	2.41954
693.5000	2.41592
694.0000	2.38869
694.5000	2.35212
695.0000	2.31559
695.5000	2.31652
696.0000	2.32394
696.5000	2.24887
697.0000	2.20092
697.5000	2.21395
698.0000	2.14969
698.5000	2.14909
699.0000	2.09133
699.5000	2.03626
700.0000	2.0227

##### Extended Information
[コメント情報]
試料名
コメント
測定者
所属
会社	関西大学

[データ情報]
作成日時	2025/03/31 11:51

データタイプ	等間隔データ
横軸	Wavelength [nm]
縦軸	Int.
スタート	447 nm
エンド	700 nm
データ間隔	0.5 nm
データ数	507     

[測定情報]
機種名	FP-8300
シリアル番号	C037361450
  Ex側フォルダ	なし
  Em側フォルダ	なし

付属品名	SCE-846
付属品シリアルNo.	C037361450

測定日時	2025/03/31 11:51

測定モード	蛍光
励起側バンド幅	5 nm
蛍光側バンド幅	5 nm
レスポンス	0.1 sec
感度	Low
測定範囲	447 - 700 nm
データ取込間隔	0.5 nm
励起波長	447.0 nm
走査速度	500 nm/min
オートゲイン	Off
自動シャッタ制御	測定時のみ開く
光源	キセノンランプ
フィルタ	交換時にスキャンを停止する
ブランク補正	Off

