TITLE	
DATA TYPE	FLUORESCENCE SPECTRUM
ORIGIN	JASCO
OWNER	
DATE	25/02/07
TIME	11:39:12
SPECTROMETER/DATA SYSTEM	
LOCALE	1041
RESOLUTION	
DELTAX	0.5
XUNITS	NANOMETERS
YUNITS	INTENSITY
FIRSTX	  448.0000
LASTX	  700.0000
NPOINTS	     505
FIRSTY	  1022.75787
MAXY	  2858.55298
MINY	     2.96594
XYDATA
448.0000	1022.76
448.5000	1130.84
449.0000	1243.57
449.5000	1362.56
450.0000	1486.01
450.5000	1611.86
451.0000	1738.89
451.5000	1864.57
452.0000	1990.56
452.5000	2114.33
453.0000	2233.97
453.5000	2343.39
454.0000	2445.62
454.5000	2538.72
455.0000	2621.81
455.5000	2689.12
456.0000	2744.1
456.5000	2789.46
457.0000	2824.51
457.5000	2846.77
458.0000	2857.35
458.5000	2858.55
459.0000	2851.16
459.5000	2836.44
460.0000	2813.41
460.5000	2783.06
461.0000	2748.3
461.5000	2706.46
462.0000	2659.58
462.5000	2609.59
463.0000	2555.14
463.5000	2498.71
464.0000	2438.71
464.5000	2376.95
465.0000	2315.15
465.5000	2250.79
466.0000	2185.31
466.5000	2123.61
467.0000	2061.25
467.5000	1999.88
468.0000	1939.69
468.5000	1880.97
469.0000	1824.37
469.5000	1769.44
470.0000	1719.81
470.5000	1672.06
471.0000	1624.67
471.5000	1581.85
472.0000	1544.94
472.5000	1511.2
473.0000	1481.75
473.5000	1457.41
474.0000	1435.46
474.5000	1417.77
475.0000	1406.05
475.5000	1399.89
476.0000	1399.07
476.5000	1402.25
477.0000	1409.79
477.5000	1422.73
478.0000	1441.19
478.5000	1461.58
479.0000	1486.97
479.5000	1516.06
480.0000	1545.29
480.5000	1577.18
481.0000	1612.12
481.5000	1646.28
482.0000	1681.37
482.5000	1715.06
483.0000	1746.66
483.5000	1777.62
484.0000	1807.75
484.5000	1835.97
485.0000	1859.7
485.5000	1880.06
486.0000	1899.44
486.5000	1916.99
487.0000	1928.14
487.5000	1935.21
488.0000	1938.01
488.5000	1937.08
489.0000	1933.49
489.5000	1924.67
490.0000	1909.22
490.5000	1889.64
491.0000	1866.52
491.5000	1840.05
492.0000	1808.17
492.5000	1771.52
493.0000	1732.52
493.5000	1690.43
494.0000	1645.73
494.5000	1598.89
495.0000	1548.99
495.5000	1499.93
496.0000	1450.11
496.5000	1401.45
497.0000	1351.58
497.5000	1303.63
498.0000	1254.08
498.5000	1207.92
499.0000	1163.2
499.5000	1119.71
500.0000	1076.78
500.5000	1035.3
501.0000	996.341
501.5000	960.008
502.0000	924.39
502.5000	891.544
503.0000	861.663
503.5000	831.061
504.0000	803.233
504.5000	778.107
505.0000	754.96
505.5000	733.199
506.0000	712.837
506.5000	693.815
507.0000	677.39
507.5000	662.555
508.0000	649.584
508.5000	636.702
509.0000	624.691
509.5000	614.581
510.0000	605.903
510.5000	599.033
511.0000	593.307
511.5000	587.826
512.0000	582.752
512.5000	578.871
513.0000	575.904
513.5000	573.451
514.0000	572.228
514.5000	570.572
515.0000	569.882
515.5000	569.757
516.0000	569.036
516.5000	570.647
517.0000	571.682
517.5000	572.563
518.0000	573.769
518.5000	574.885
519.0000	576.434
519.5000	577.662
520.0000	579.226
520.5000	580.119
521.0000	581.221
521.5000	582.548
522.0000	583.624
522.5000	584.48
523.0000	585.516
523.5000	585.453
524.0000	585.364
524.5000	585.411
525.0000	584.889
525.5000	584.039
526.0000	582.466
526.5000	581.634
527.0000	581.102
527.5000	578.926
528.0000	576.423
528.5000	573.133
529.0000	570.405
529.5000	567.305
530.0000	564.145
530.5000	560.024
531.0000	555.231
531.5000	549.957
532.0000	544.221
532.5000	538.29
533.0000	532.462
533.5000	528.258
534.0000	521.192
534.5000	514.651
535.0000	507.471
535.5000	500.82
536.0000	493.946
536.5000	486.348
537.0000	479.103
537.5000	471.783
538.0000	464.862
538.5000	457.552
539.0000	449.316
539.5000	442.608
540.0000	435.777
540.5000	425.987
541.0000	418.926
541.5000	411.784
542.0000	404.863
542.5000	397.452
543.0000	391.134
543.5000	385.143
544.0000	378.46
544.5000	371.391
545.0000	365.086
545.5000	359.2
546.0000	353.85
546.5000	348.082
547.0000	343.159
547.5000	337.576
548.0000	331.75
548.5000	326.228
549.0000	321.45
549.5000	316.994
550.0000	312.439
550.5000	308.343
551.0000	303.726
551.5000	300.205
552.0000	295.915
552.5000	292.069
553.0000	288.423
553.5000	284.64
554.0000	281.741
554.5000	277.961
555.0000	274.747
555.5000	272.314
556.0000	268.811
556.5000	265.344
557.0000	262.618
557.5000	260.205
558.0000	257.703
558.5000	254.829
559.0000	252.173
559.5000	248.983
560.0000	245.734
560.5000	243.699
561.0000	241.241
561.5000	239.041
562.0000	236.663
562.5000	233.93
563.0000	231.334
563.5000	228.683
564.0000	226.259
564.5000	223.783
565.0000	221.209
565.5000	218.831
566.0000	216.313
566.5000	213.645
567.0000	211.225
567.5000	208.564
568.0000	205.64
568.5000	203.444
569.0000	200.714
569.5000	198.337
570.0000	196.438
570.5000	193.643
571.0000	190.751
571.5000	188.389
572.0000	186.015
572.5000	183.075
573.0000	180.838
573.5000	178.08
574.0000	175.535
574.5000	173.151
575.0000	170.235
575.5000	167.347
576.0000	164.906
576.5000	162.898
577.0000	160.401
577.5000	157.67
578.0000	155.022
578.5000	152.964
579.0000	150.51
579.5000	148.238
580.0000	145.717
580.5000	143.462
581.0000	140.989
581.5000	138.791
582.0000	136.701
582.5000	134.301
583.0000	132.415
583.5000	130.266
584.0000	128.03
584.5000	125.814
585.0000	123.575
585.5000	121.752
586.0000	119.958
586.5000	117.723
587.0000	115.828
587.5000	113.879
588.0000	111.682
588.5000	110.161
589.0000	108.358
589.5000	106.609
590.0000	104.837
590.5000	102.873
591.0000	101.204
591.5000	99.865
592.0000	98.353
592.5000	96.7535
593.0000	95.1232
593.5000	93.3146
594.0000	92.1856
594.5000	90.5294
595.0000	89.014
595.5000	87.8444
596.0000	86.5176
596.5000	85.1673
597.0000	83.7713
597.5000	82.5853
598.0000	81.3331
598.5000	80.009
599.0000	78.7937
599.5000	77.5084
600.0000	76.5192
600.5000	75.2134
601.0000	74.0453
601.5000	73.2323
602.0000	72.0623
602.5000	70.84
603.0000	69.919
603.5000	68.7941
604.0000	67.8952
604.5000	66.7086
605.0000	65.9316
605.5000	65.0928
606.0000	63.943
606.5000	62.8164
607.0000	62.0125
607.5000	61.1518
608.0000	60.2238
608.5000	59.4613
609.0000	58.6276
609.5000	57.7635
610.0000	56.7464
610.5000	56.0415
611.0000	55.2314
611.5000	54.5252
612.0000	53.7604
612.5000	52.8559
613.0000	51.8377
613.5000	51.3012
614.0000	50.3093
614.5000	49.6527
615.0000	48.8909
615.5000	48.1037
616.0000	47.3742
616.5000	46.8269
617.0000	46.0795
617.5000	45.4295
618.0000	44.6751
618.5000	44.0177
619.0000	43.3398
619.5000	42.6753
620.0000	41.9075
620.5000	41.4144
621.0000	40.7495
621.5000	40.07
622.0000	39.4813
622.5000	38.7766
623.0000	38.2658
623.5000	37.6988
624.0000	37.1081
624.5000	36.3169
625.0000	35.9124
625.5000	35.3042
626.0000	34.8525
626.5000	34.3123
627.0000	33.8468
627.5000	33.1158
628.0000	32.6615
628.5000	32.1119
629.0000	31.6943
629.5000	31.0076
630.0000	30.6265
630.5000	30.2156
631.0000	29.8382
631.5000	29.2211
632.0000	28.7512
632.5000	28.2429
633.0000	27.8628
633.5000	27.3438
634.0000	26.8885
634.5000	26.4085
635.0000	25.9873
635.5000	25.5604
636.0000	25.0168
636.5000	24.6931
637.0000	24.366
637.5000	23.9215
638.0000	23.5371
638.5000	23.1691
639.0000	22.7856
639.5000	22.5195
640.0000	22.0011
640.5000	21.7077
641.0000	21.4131
641.5000	20.9801
642.0000	20.6214
642.5000	20.2249
643.0000	19.8968
643.5000	19.4152
644.0000	19.2245
644.5000	19.0419
645.0000	18.7527
645.5000	18.4125
646.0000	18.024
646.5000	17.7243
647.0000	17.4353
647.5000	17.0916
648.0000	16.9233
648.5000	16.5751
649.0000	16.2867
649.5000	16.1419
650.0000	15.8711
650.5000	15.5744
651.0000	15.3198
651.5000	15.0193
652.0000	14.7824
652.5000	14.5123
653.0000	14.4326
653.5000	14.2038
654.0000	13.8824
654.5000	13.6468
655.0000	13.5052
655.5000	13.133
656.0000	12.9103
656.5000	12.8252
657.0000	12.5736
657.5000	12.3755
658.0000	12.1754
658.5000	11.9512
659.0000	11.7739
659.5000	11.5803
660.0000	11.3885
660.5000	11.1757
661.0000	10.9921
661.5000	10.8679
662.0000	10.6901
662.5000	10.4189
663.0000	10.2459
663.5000	10.1608
664.0000	9.94154
664.5000	9.80958
665.0000	9.64808
665.5000	9.38961
666.0000	9.33953
666.5000	9.20631
667.0000	9.10543
667.5000	8.9445
668.0000	8.77498
668.5000	8.59848
669.0000	8.45227
669.5000	8.37027
670.0000	8.27644
670.5000	7.97194
671.0000	7.79175
671.5000	7.80182
672.0000	7.70432
672.5000	7.5459
673.0000	7.31862
673.5000	7.28872
674.0000	7.12642
674.5000	7.03982
675.0000	6.98889
675.5000	6.84114
676.0000	6.65513
676.5000	6.50659
677.0000	6.5064
677.5000	6.3566
678.0000	6.25697
678.5000	6.16715
679.0000	6.06501
679.5000	5.95415
680.0000	5.83301
680.5000	5.76415
681.0000	5.63476
681.5000	5.63276
682.0000	5.50144
682.5000	5.36896
683.0000	5.28504
683.5000	5.19496
684.0000	5.07501
684.5000	5.02545
685.0000	4.87785
685.5000	4.82811
686.0000	4.81886
686.5000	4.76393
687.0000	4.6296
687.5000	4.54399
688.0000	4.49337
688.5000	4.47912
689.0000	4.33359
689.5000	4.22745
690.0000	4.17812
690.5000	4.08773
691.0000	3.99971
691.5000	3.95742
692.0000	3.90179
692.5000	3.86791
693.0000	3.78499
693.5000	3.71081
694.0000	3.70847
694.5000	3.566
695.0000	3.55803
695.5000	3.50356
696.0000	3.42884
696.5000	3.40625
697.0000	3.35189
697.5000	3.28074
698.0000	3.24367
698.5000	3.20793
699.0000	3.13426
699.5000	3.02139
700.0000	2.96594

##### Extended Information
[コメント情報]
試料名
コメント
測定者
所属
会社	関西大学

[データ情報]
作成日時	2025/02/07 11:39

データタイプ	等間隔データ
横軸	Wavelength [nm]
縦軸	Int.
スタート	448 nm
エンド	700 nm
データ間隔	0.5 nm
データ数	505     

[測定情報]
機種名	FP-8300
シリアル番号	C037361450
  Ex側フォルダ	なし
  Em側フォルダ	なし

付属品名	SCE-846
付属品シリアルNo.	C037361450

測定日時	2025/02/07 11:39

測定モード	蛍光
励起側バンド幅	5 nm
蛍光側バンド幅	5 nm
レスポンス	0.1 sec
感度	Low
測定範囲	448 - 700 nm
データ取込間隔	0.5 nm
励起波長	448.0 nm
走査速度	500 nm/min
オートゲイン	Off
自動シャッタ制御	測定時のみ開く
光源	キセノンランプ
フィルタ	交換時にスキャンを停止する
ブランク補正	Off

