TITLE	
DATA TYPE	FLUORESCENCE SPECTRUM
ORIGIN	JASCO
OWNER	
DATE	25/03/31
TIME	12:04:23
SPECTROMETER/DATA SYSTEM	
LOCALE	1041
RESOLUTION	
DELTAX	0.5
XUNITS	NANOMETERS
YUNITS	INTENSITY
FIRSTX	  447.0000
LASTX	  700.0000
NPOINTS	     507
FIRSTY	   608.58789
MAXY	  1866.35144
MINY	     4.02410
XYDATA
447.0000	608.588
447.5000	661.957
448.0000	719.984
448.5000	782.785
449.0000	850.324
449.5000	924.036
450.0000	1003.07
450.5000	1083.73
451.0000	1165.42
451.5000	1248.6
452.0000	1330.6
452.5000	1412.58
453.0000	1489.51
453.5000	1559.26
454.0000	1622.87
454.5000	1680.17
455.0000	1727.32
455.5000	1770.22
456.0000	1804.93
456.5000	1830.98
457.0000	1850.77
457.5000	1861.89
458.0000	1866.35
458.5000	1865.6
459.0000	1859.57
459.5000	1849.3
460.0000	1833.42
460.5000	1812.6
461.0000	1787.89
461.5000	1759.82
462.0000	1730.11
462.5000	1697.72
463.0000	1661.94
463.5000	1625.34
464.0000	1587.78
464.5000	1547.13
465.0000	1508.01
465.5000	1468.68
466.0000	1427.53
466.5000	1386.56
467.0000	1346.87
467.5000	1308.55
468.0000	1270.84
468.5000	1232.61
469.0000	1197.2
469.5000	1163.4
470.0000	1131.18
470.5000	1100.5
471.0000	1072.31
471.5000	1046.07
472.0000	1023.17
472.5000	1002.59
473.0000	984.465
473.5000	970.131
474.0000	958.282
474.5000	948.962
475.0000	942.777
475.5000	940.59
476.0000	940.547
476.5000	945.205
477.0000	951.629
477.5000	960.674
478.0000	973.554
478.5000	989.039
479.0000	1005.43
479.5000	1025.37
480.0000	1045.81
480.5000	1066.68
481.0000	1088.75
481.5000	1110.89
482.0000	1134.03
482.5000	1156.12
483.0000	1175.93
483.5000	1194.96
484.0000	1214.95
484.5000	1233.71
485.0000	1247.78
485.5000	1259.22
486.0000	1269.91
486.5000	1278.94
487.0000	1286.03
487.5000	1291.95
488.0000	1293.98
488.5000	1292.82
489.0000	1288.95
489.5000	1281.46
490.0000	1271.46
490.5000	1259.44
491.0000	1244.89
491.5000	1225.61
492.0000	1205.37
492.5000	1180.98
493.0000	1153.8
493.5000	1127.02
494.0000	1096.69
494.5000	1066.86
495.0000	1035.25
495.5000	1001.07
496.0000	968.779
496.5000	937.909
497.0000	906.149
497.5000	876.105
498.0000	844.059
498.5000	814.191
499.0000	785.513
499.5000	756.624
500.0000	729.56
500.5000	703.016
501.0000	677.205
501.5000	654.66
502.0000	632.343
502.5000	610.792
503.0000	590.836
503.5000	572.454
504.0000	555.677
504.5000	538.572
505.0000	524.421
505.5000	511.093
506.0000	497.609
506.5000	487.009
507.0000	476.648
507.5000	466.781
508.0000	458.046
508.5000	450.626
509.0000	444.668
509.5000	438.666
510.0000	433.357
510.5000	429.569
511.0000	425.77
511.5000	422.141
512.0000	420.352
512.5000	418.177
513.0000	417.079
513.5000	415.84
514.0000	414.765
514.5000	414.884
515.0000	415.068
515.5000	414.699
516.0000	415.144
516.5000	415.987
517.0000	416.942
517.5000	417.573
518.0000	418.122
518.5000	419.462
519.0000	421.273
519.5000	422.081
520.0000	422.995
520.5000	423.847
521.0000	424.779
521.5000	425.952
522.0000	427.922
522.5000	428.812
523.0000	429.234
523.5000	429.439
524.0000	429.785
524.5000	429.979
525.0000	430.53
525.5000	430.118
526.0000	429.774
526.5000	429.579
527.0000	428.881
527.5000	427.929
528.0000	426.624
528.5000	424.981
529.0000	423.484
529.5000	421.759
530.0000	420.058
530.5000	418.084
531.0000	415.28
531.5000	412.071
532.0000	409.109
532.5000	405.959
533.0000	402.811
533.5000	399.621
534.0000	395.272
534.5000	391.526
535.0000	388.043
535.5000	383.815
536.0000	379.318
536.5000	375.31
537.0000	370.907
537.5000	366.234
538.0000	361.661
538.5000	357.407
539.0000	353.104
539.5000	348.587
540.0000	344.438
540.5000	337.603
541.0000	333.203
541.5000	329.126
542.0000	324.861
542.5000	320.576
543.0000	316.71
543.5000	312.171
544.0000	307.85
544.5000	303.612
545.0000	299.988
545.5000	296.071
546.0000	292.522
546.5000	289.135
547.0000	285.676
547.5000	282.266
548.0000	279.173
548.5000	275.717
549.0000	272.459
549.5000	269.111
550.0000	265.605
550.5000	262.722
551.0000	260.412
551.5000	257.733
552.0000	255.125
552.5000	252.142
553.0000	249.857
553.5000	247.496
554.0000	245.043
554.5000	242.972
555.0000	240.528
555.5000	238.556
556.0000	236.486
556.5000	234.304
557.0000	232.226
557.5000	230.158
558.0000	227.859
558.5000	225.931
559.0000	224.224
559.5000	222.028
560.0000	219.933
560.5000	217.784
561.0000	216.189
561.5000	214.607
562.0000	212.312
562.5000	210.151
563.0000	208.732
563.5000	207.018
564.0000	204.77
564.5000	202.93
565.0000	200.782
565.5000	198.687
566.0000	196.918
566.5000	195.242
567.0000	193.187
567.5000	190.997
568.0000	189.098
568.5000	187.058
569.0000	185.333
569.5000	183.585
570.0000	181.302
570.5000	179.334
571.0000	177.355
571.5000	175.656
572.0000	173.646
572.5000	171.218
573.0000	169.101
573.5000	166.779
574.0000	165.027
574.5000	163.387
575.0000	161.255
575.5000	158.687
576.0000	156.741
576.5000	154.92
577.0000	153.272
577.5000	150.871
578.0000	148.959
578.5000	147.02
579.0000	145.011
579.5000	143.345
580.0000	141.415
580.5000	139.424
581.0000	137.585
581.5000	135.595
582.0000	133.873
582.5000	132.378
583.0000	130.184
583.5000	128.563
584.0000	127.347
584.5000	125.326
585.0000	123.293
585.5000	121.732
586.0000	120.13
586.5000	118.175
587.0000	116.521
587.5000	115.179
588.0000	113.359
588.5000	111.987
589.0000	110.655
589.5000	108.894
590.0000	107.317
590.5000	105.977
591.0000	104.644
591.5000	103.039
592.0000	101.587
592.5000	100.356
593.0000	99.109
593.5000	97.7829
594.0000	96.2316
594.5000	94.9103
595.0000	93.742
595.5000	92.5226
596.0000	91.3703
596.5000	90.1117
597.0000	88.839
597.5000	87.6362
598.0000	86.5217
598.5000	85.3252
599.0000	84.2164
599.5000	83.381
600.0000	82.0422
600.5000	80.8605
601.0000	80.1993
601.5000	79.1219
602.0000	78.1139
602.5000	77.1174
603.0000	75.9309
603.5000	74.9306
604.0000	73.6333
604.5000	72.8185
605.0000	71.8575
605.5000	70.8845
606.0000	70.1754
606.5000	69.1351
607.0000	68.1323
607.5000	67.1938
608.0000	66.5957
608.5000	65.8642
609.0000	64.9348
609.5000	64.2094
610.0000	63.1791
610.5000	62.211
611.0000	61.3212
611.5000	60.48
612.0000	59.6159
612.5000	58.7837
613.0000	58.082
613.5000	57.3078
614.0000	56.4813
614.5000	55.8088
615.0000	55.1856
615.5000	54.3626
616.0000	53.4984
616.5000	52.9743
617.0000	52.0498
617.5000	51.593
618.0000	50.7292
618.5000	49.9855
619.0000	49.4638
619.5000	48.7456
620.0000	48.1029
620.5000	47.4174
621.0000	46.7417
621.5000	45.931
622.0000	45.062
622.5000	44.561
623.0000	44.2199
623.5000	43.5158
624.0000	42.8629
624.5000	42.1998
625.0000	41.4507
625.5000	40.8968
626.0000	40.4362
626.5000	39.8806
627.0000	39.228
627.5000	38.5482
628.0000	37.9419
628.5000	37.5888
629.0000	37.0083
629.5000	36.4176
630.0000	35.8589
630.5000	35.2838
631.0000	34.7948
631.5000	34.4459
632.0000	33.8788
632.5000	33.3769
633.0000	32.7799
633.5000	32.2907
634.0000	31.9472
634.5000	31.3735
635.0000	30.9692
635.5000	30.5284
636.0000	30.046
636.5000	29.4955
637.0000	29.1607
637.5000	28.7314
638.0000	28.021
638.5000	27.7274
639.0000	27.4732
639.5000	27.0036
640.0000	26.5966
640.5000	26.2705
641.0000	25.832
641.5000	25.3634
642.0000	24.912
642.5000	24.7093
643.0000	24.3118
643.5000	23.8549
644.0000	23.5159
644.5000	23.1875
645.0000	22.9414
645.5000	22.4035
646.0000	22.0415
646.5000	21.7973
647.0000	21.3708
647.5000	20.9475
648.0000	20.6995
648.5000	20.3409
649.0000	20.072
649.5000	19.7281
650.0000	19.3453
650.5000	19.1788
651.0000	18.8676
651.5000	18.6446
652.0000	18.2571
652.5000	18.1555
653.0000	17.722
653.5000	17.393
654.0000	17.2212
654.5000	17.0238
655.0000	16.7766
655.5000	16.3838
656.0000	16.1422
656.5000	15.9171
657.0000	15.7032
657.5000	15.4595
658.0000	15.2287
658.5000	15.0234
659.0000	14.7528
659.5000	14.4819
660.0000	14.2851
660.5000	13.9724
661.0000	13.9124
661.5000	13.7266
662.0000	13.529
662.5000	13.2518
663.0000	13.1124
663.5000	12.7758
664.0000	12.5878
664.5000	12.3779
665.0000	12.2913
665.5000	12.0073
666.0000	11.7974
666.5000	11.5635
667.0000	11.4528
667.5000	11.4004
668.0000	11.2047
668.5000	10.9708
669.0000	10.6777
669.5000	10.5815
670.0000	10.4129
670.5000	10.1958
671.0000	10.0797
671.5000	10.0051
672.0000	9.81473
672.5000	9.59805
673.0000	9.47396
673.5000	9.3622
674.0000	9.17508
674.5000	9.01612
675.0000	8.84711
675.5000	8.73472
676.0000	8.61943
676.5000	8.50564
677.0000	8.38288
677.5000	8.18032
678.0000	7.98992
678.5000	7.88733
679.0000	7.80894
679.5000	7.68004
680.0000	7.51382
680.5000	7.39359
681.0000	7.29974
681.5000	7.2076
682.0000	7.10711
682.5000	6.96751
683.0000	6.82119
683.5000	6.75877
684.0000	6.68269
684.5000	6.55793
685.0000	6.43061
685.5000	6.37173
686.0000	6.25761
686.5000	6.20589
687.0000	6.11192
687.5000	5.99469
688.0000	5.8807
688.5000	5.78228
689.0000	5.66597
689.5000	5.63294
690.0000	5.64065
690.5000	5.51787
691.0000	5.36497
691.5000	5.24865
692.0000	5.15931
692.5000	5.04827
693.0000	4.97727
693.5000	4.92471
694.0000	4.87261
694.5000	4.80625
695.0000	4.74965
695.5000	4.63168
696.0000	4.58958
696.5000	4.45952
697.0000	4.39563
697.5000	4.35917
698.0000	4.26818
698.5000	4.22623
699.0000	4.20556
699.5000	4.11729
700.0000	4.0241

##### Extended Information
[コメント情報]
試料名
コメント
測定者
所属
会社	関西大学

[データ情報]
作成日時	2025/03/31 12:04

データタイプ	等間隔データ
横軸	Wavelength [nm]
縦軸	Int.
スタート	447 nm
エンド	700 nm
データ間隔	0.5 nm
データ数	507     

[測定情報]
機種名	FP-8300
シリアル番号	C037361450
  Ex側フォルダ	なし
  Em側フォルダ	なし

付属品名	SCE-846
付属品シリアルNo.	C037361450

測定日時	2025/03/31 12:04

測定モード	蛍光
励起側バンド幅	5 nm
蛍光側バンド幅	5 nm
レスポンス	0.1 sec
感度	Low
測定範囲	447 - 700 nm
データ取込間隔	0.5 nm
励起波長	447.0 nm
走査速度	500 nm/min
オートゲイン	Off
自動シャッタ制御	測定時のみ開く
光源	キセノンランプ
フィルタ	交換時にスキャンを停止する
ブランク補正	Off

