TITLE	
DATA TYPE	FLUORESCENCE SPECTRUM
ORIGIN	JASCO
OWNER	
DATE	25/04/22
TIME	16:48:34
SPECTROMETER/DATA SYSTEM	
LOCALE	1041
RESOLUTION	
DELTAX	0.5
XUNITS	NANOMETERS
YUNITS	INTENSITY
FIRSTX	  446.0000
LASTX	  700.0000
NPOINTS	     509
FIRSTY	   174.62135
MAXY	   174.62135
MINY	     1.30878
XYDATA
446.0000	174.621
446.5000	162.505
447.0000	148.373
447.5000	133.394
448.0000	119.324
448.5000	107.062
449.0000	98.216
449.5000	91.815
450.0000	87.4884
450.5000	85.8316
451.0000	85.2349
451.5000	85.1406
452.0000	85.7598
452.5000	86.5855
453.0000	87.2518
453.5000	87.9103
454.0000	88.3602
454.5000	87.9815
455.0000	87.6749
455.5000	87.3425
456.0000	86.7822
456.5000	86.0506
457.0000	85.1264
457.5000	83.6617
458.0000	81.9959
458.5000	80.9594
459.0000	79.7869
459.5000	77.8365
460.0000	75.9971
460.5000	74.2293
461.0000	72.5666
461.5000	70.7355
462.0000	68.8348
462.5000	67.1886
463.0000	65.1886
463.5000	63.6477
464.0000	61.9156
464.5000	60.2767
465.0000	59.1804
465.5000	57.881
466.0000	56.1763
466.5000	54.9225
467.0000	53.7194
467.5000	52.6573
468.0000	51.948
468.5000	50.8767
469.0000	50.1185
469.5000	49.3928
470.0000	48.9983
470.5000	48.9621
471.0000	48.9115
471.5000	49.1055
472.0000	49.1015
472.5000	49.3829
473.0000	49.837
473.5000	50.2008
474.0000	50.8922
474.5000	51.6577
475.0000	52.4932
475.5000	53.2533
476.0000	54.1349
476.5000	55.1455
477.0000	56.1003
477.5000	56.9037
478.0000	57.7487
478.5000	58.781
479.0000	59.481
479.5000	60.1052
480.0000	60.8348
480.5000	61.3104
481.0000	61.5714
481.5000	62.2355
482.0000	62.4853
482.5000	62.5295
483.0000	62.7299
483.5000	62.5727
484.0000	62.1378
484.5000	62.0807
485.0000	61.889
485.5000	61.5718
486.0000	61.1146
486.5000	60.4424
487.0000	60.0211
487.5000	59.2605
488.0000	58.7377
488.5000	57.7221
489.0000	56.9296
489.5000	56.1091
490.0000	54.7657
490.5000	53.5975
491.0000	52.5508
491.5000	51.54
492.0000	50.3004
492.5000	48.899
493.0000	47.4024
493.5000	46.2649
494.0000	44.9013
494.5000	43.7131
495.0000	42.3511
495.5000	40.6566
496.0000	39.4732
496.5000	38.215
497.0000	36.8332
497.5000	35.7938
498.0000	34.4355
498.5000	33.4488
499.0000	32.4829
499.5000	31.5544
500.0000	30.5708
500.5000	29.6979
501.0000	28.6899
501.5000	27.9632
502.0000	27.4135
502.5000	26.8176
503.0000	26.193
503.5000	25.6327
504.0000	25.1556
504.5000	24.5692
505.0000	24.1799
505.5000	23.937
506.0000	23.6768
506.5000	23.4354
507.0000	23.2474
507.5000	23.0419
508.0000	22.9814
508.5000	22.9328
509.0000	22.8277
509.5000	22.8764
510.0000	22.9783
510.5000	22.9034
511.0000	22.9315
511.5000	22.9964
512.0000	22.7989
512.5000	22.7545
513.0000	22.868
513.5000	22.765
514.0000	22.7146
514.5000	22.5893
515.0000	22.6221
515.5000	22.574
516.0000	22.5574
516.5000	22.6372
517.0000	22.5656
517.5000	22.4257
518.0000	22.195
518.5000	22.0708
519.0000	22.017
519.5000	21.8876
520.0000	21.7656
520.5000	21.9083
521.0000	22
521.5000	21.895
522.0000	21.8151
522.5000	21.7359
523.0000	21.6385
523.5000	21.4686
524.0000	21.3578
524.5000	21.431
525.0000	21.4148
525.5000	21.2934
526.0000	21.1579
526.5000	21.1194
527.0000	21.0134
527.5000	20.9777
528.0000	20.6766
528.5000	20.7114
529.0000	20.6669
529.5000	20.5297
530.0000	20.3892
530.5000	20.2542
531.0000	20.3366
531.5000	20.2172
532.0000	20.164
532.5000	20.0793
533.0000	19.9776
533.5000	19.9615
534.0000	19.7884
534.5000	19.7677
535.0000	19.6475
535.5000	19.5212
536.0000	19.4456
536.5000	19.3753
537.0000	19.0756
537.5000	18.9698
538.0000	18.8607
538.5000	18.7104
539.0000	18.6577
539.5000	18.6402
540.0000	18.5341
540.5000	18.3315
541.0000	18.2897
541.5000	18.2061
542.0000	18.1098
542.5000	17.8622
543.0000	17.7805
543.5000	17.6818
544.0000	17.5345
544.5000	17.5523
545.0000	17.5313
545.5000	17.5696
546.0000	17.4585
546.5000	17.233
547.0000	17.2207
547.5000	17.174
548.0000	17.1152
548.5000	17.0553
549.0000	17.0925
549.5000	17.0651
550.0000	16.9309
550.5000	16.8463
551.0000	16.7095
551.5000	16.7994
552.0000	16.6945
552.5000	16.5413
553.0000	16.4028
553.5000	16.3978
554.0000	16.352
554.5000	16.3222
555.0000	16.2415
555.5000	16.0697
556.0000	16.1366
556.5000	16.0421
557.0000	16.0399
557.5000	15.9362
558.0000	15.7416
558.5000	15.7277
559.0000	15.7706
559.5000	15.7597
560.0000	15.6739
560.5000	15.7711
561.0000	15.5355
561.5000	15.3941
562.0000	15.4066
562.5000	15.2284
563.0000	15.1618
563.5000	15.08
564.0000	14.9676
564.5000	14.9646
565.0000	14.9172
565.5000	14.8301
566.0000	14.7254
566.5000	14.5291
567.0000	14.506
567.5000	14.5487
568.0000	14.489
568.5000	14.4696
569.0000	14.328
569.5000	14.1494
570.0000	14.081
570.5000	13.9953
571.0000	13.8812
571.5000	13.8136
572.0000	13.876
572.5000	13.7201
573.0000	13.5276
573.5000	13.5209
574.0000	13.4238
574.5000	13.2604
575.0000	13.0776
575.5000	13.1424
576.0000	13.1176
576.5000	13.0518
577.0000	12.9712
577.5000	12.9455
578.0000	12.828
578.5000	12.7038
579.0000	12.6144
579.5000	12.5227
580.0000	12.4149
580.5000	12.3577
581.0000	12.3377
581.5000	12.2019
582.0000	12.2136
582.5000	12.1807
583.0000	12.0809
583.5000	12.0393
584.0000	11.995
584.5000	11.8148
585.0000	11.7422
585.5000	11.6379
586.0000	11.5981
586.5000	11.5939
587.0000	11.4233
587.5000	11.3416
588.0000	11.2614
588.5000	11.2759
589.0000	11.2785
589.5000	11.0892
590.0000	10.9989
590.5000	10.9569
591.0000	10.8212
591.5000	10.7316
592.0000	10.7662
592.5000	10.6282
593.0000	10.5333
593.5000	10.594
594.0000	10.4895
594.5000	10.4316
595.0000	10.1823
595.5000	10.1029
596.0000	10.2101
596.5000	10.195
597.0000	10.0409
597.5000	9.98359
598.0000	9.93678
598.5000	9.80278
599.0000	9.76482
599.5000	9.68287
600.0000	9.51956
600.5000	9.55571
601.0000	9.47596
601.5000	9.40858
602.0000	9.36158
602.5000	9.3155
603.0000	9.29381
603.5000	9.19166
604.0000	9.09453
604.5000	9.00684
605.0000	8.87112
605.5000	8.72416
606.0000	8.68882
606.5000	8.65251
607.0000	8.63351
607.5000	8.52197
608.0000	8.41406
608.5000	8.50659
609.0000	8.44874
609.5000	8.33059
610.0000	8.24943
610.5000	8.16673
611.0000	8.13384
611.5000	8.15374
612.0000	8.03911
612.5000	7.85598
613.0000	7.84384
613.5000	7.7956
614.0000	7.72297
614.5000	7.6942
615.0000	7.57237
615.5000	7.5172
616.0000	7.52192
616.5000	7.4666
617.0000	7.41605
617.5000	7.39263
618.0000	7.26248
618.5000	7.149
619.0000	7.09047
619.5000	7.04304
620.0000	6.8874
620.5000	6.88242
621.0000	6.92649
621.5000	6.85339
622.0000	6.84098
622.5000	6.69423
623.0000	6.54891
623.5000	6.51388
624.0000	6.44762
624.5000	6.37177
625.0000	6.35701
625.5000	6.33084
626.0000	6.28518
626.5000	6.22159
627.0000	6.30463
627.5000	6.15679
628.0000	5.99166
628.5000	5.97698
629.0000	5.95057
629.5000	5.85601
630.0000	5.76163
630.5000	5.73337
631.0000	5.68716
631.5000	5.71982
632.0000	5.65013
632.5000	5.5117
633.0000	5.51502
633.5000	5.46769
634.0000	5.40656
634.5000	5.2978
635.0000	5.25308
635.5000	5.20938
636.0000	5.25333
636.5000	5.22026
637.0000	5.14928
637.5000	5.15652
638.0000	5.06908
638.5000	5.00471
639.0000	4.87955
639.5000	4.90029
640.0000	4.85148
640.5000	4.7965
641.0000	4.72939
641.5000	4.65276
642.0000	4.6373
642.5000	4.52922
643.0000	4.59084
643.5000	4.53473
644.0000	4.51471
644.5000	4.42764
645.0000	4.42494
645.5000	4.3378
646.0000	4.3568
646.5000	4.3118
647.0000	4.23567
647.5000	4.22146
648.0000	4.21917
648.5000	4.11202
649.0000	4.11087
649.5000	4.03114
650.0000	3.93147
650.5000	3.97017
651.0000	3.94891
651.5000	3.82693
652.0000	3.83437
652.5000	3.74107
653.0000	3.73844
653.5000	3.71924
654.0000	3.72377
654.5000	3.69573
655.0000	3.58401
655.5000	3.55641
656.0000	3.58203
656.5000	3.51658
657.0000	3.5009
657.5000	3.3997
658.0000	3.34418
658.5000	3.36595
659.0000	3.27868
659.5000	3.25968
660.0000	3.25195
660.5000	3.148
661.0000	3.17651
661.5000	3.16254
662.0000	3.0631
662.5000	3.03739
663.0000	3.0685
663.5000	3.03722
664.0000	2.98219
664.5000	3.02156
665.0000	2.92699
665.5000	2.86146
666.0000	2.84086
666.5000	2.86162
667.0000	2.79665
667.5000	2.76936
668.0000	2.69049
668.5000	2.65636
669.0000	2.64176
669.5000	2.63952
670.0000	2.63452
670.5000	2.54755
671.0000	2.51218
671.5000	2.47348
672.0000	2.54846
672.5000	2.4831
673.0000	2.46448
673.5000	2.42469
674.0000	2.33996
674.5000	2.30575
675.0000	2.36004
675.5000	2.31718
676.0000	2.27484
676.5000	2.24715
677.0000	2.26085
677.5000	2.24106
678.0000	2.2181
678.5000	2.12249
679.0000	2.09674
679.5000	2.09775
680.0000	2.06719
680.5000	2.06677
681.0000	2.0325
681.5000	1.96858
682.0000	1.94061
682.5000	1.93507
683.0000	1.88125
683.5000	1.86555
684.0000	1.81851
684.5000	1.79691
685.0000	1.79549
685.5000	1.77349
686.0000	1.79071
686.5000	1.76003
687.0000	1.72643
687.5000	1.67284
688.0000	1.67379
688.5000	1.70103
689.0000	1.65921
689.5000	1.66241
690.0000	1.63099
690.5000	1.69397
691.0000	1.63816
691.5000	1.61837
692.0000	1.60122
692.5000	1.51021
693.0000	1.50667
693.5000	1.47738
694.0000	1.43228
694.5000	1.42034
695.0000	1.4343
695.5000	1.40518
696.0000	1.39312
696.5000	1.34009
697.0000	1.35254
697.5000	1.34443
698.0000	1.35797
698.5000	1.36689
699.0000	1.32578
699.5000	1.32517
700.0000	1.30878

##### Extended Information
[コメント情報]
試料名
コメント
測定者
所属
会社	関西大学

[データ情報]
作成日時	2025/04/22 16:48

データタイプ	等間隔データ
横軸	Wavelength [nm]
縦軸	Int.
スタート	446 nm
エンド	700 nm
データ間隔	0.5 nm
データ数	509     

[測定情報]
機種名	FP-8300
シリアル番号	C037361450
  Ex側フォルダ	なし
  Em側フォルダ	なし

付属品名	SCE-846
付属品シリアルNo.	C037361450

測定日時	2025/04/22 16:48

測定モード	蛍光
励起側バンド幅	5 nm
蛍光側バンド幅	5 nm
レスポンス	0.1 sec
感度	Low
測定範囲	446 - 700 nm
データ取込間隔	0.5 nm
励起波長	446.0 nm
走査速度	500 nm/min
オートゲイン	Off
自動シャッタ制御	測定時のみ開く
光源	キセノンランプ
フィルタ	交換時にスキャンを停止する
ブランク補正	Off

