TITLE	
DATA TYPE	FLUORESCENCE SPECTRUM
ORIGIN	JASCO
OWNER	
DATE	25/02/07
TIME	12:10:16
SPECTROMETER/DATA SYSTEM	
LOCALE	1041
RESOLUTION	
DELTAX	0.5
XUNITS	NANOMETERS
YUNITS	INTENSITY
FIRSTX	  448.0000
LASTX	  700.0000
NPOINTS	     505
FIRSTY	   123.05308
MAXY	   123.05308
MINY	     0.07574
XYDATA
448.0000	123.053
448.5000	115.288
449.0000	105.83
449.5000	94.2166
450.0000	81.3461
450.5000	69.2978
451.0000	58.6063
451.5000	49.3621
452.0000	42.7832
452.5000	38.3201
453.0000	35.4457
453.5000	33.9772
454.0000	33.5155
454.5000	33.7143
455.0000	34.0479
455.5000	34.4597
456.0000	34.8057
456.5000	35.0998
457.0000	35.3622
457.5000	35.4489
458.0000	35.2755
458.5000	35.0348
459.0000	34.8983
459.5000	34.4514
460.0000	34.0876
460.5000	33.7209
461.0000	32.9141
461.5000	32.3859
462.0000	31.8027
462.5000	31.3035
463.0000	30.5529
463.5000	29.6751
464.0000	28.966
464.5000	28.2422
465.0000	27.4416
465.5000	26.5429
466.0000	25.7511
466.5000	25.0229
467.0000	24.1855
467.5000	23.4732
468.0000	22.8479
468.5000	22.229
469.0000	21.439
469.5000	20.7144
470.0000	20.0933
470.5000	19.6823
471.0000	19.0582
471.5000	18.552
472.0000	18.198
472.5000	17.7383
473.0000	17.5022
473.5000	17.2603
474.0000	16.899
474.5000	16.8163
475.0000	16.7637
475.5000	16.7409
476.0000	16.6762
476.5000	16.7185
477.0000	16.9821
477.5000	17.1211
478.0000	17.2733
478.5000	17.547
479.0000	17.8766
479.5000	18.1816
480.0000	18.6073
480.5000	18.9308
481.0000	19.2353
481.5000	19.6845
482.0000	20.1109
482.5000	20.3025
483.0000	20.6081
483.5000	20.8137
484.0000	21.1141
484.5000	21.3655
485.0000	21.4507
485.5000	21.6868
486.0000	21.8205
486.5000	21.8575
487.0000	21.9459
487.5000	22.0467
488.0000	21.9105
488.5000	21.6296
489.0000	21.589
489.5000	21.4245
490.0000	21.1855
490.5000	20.9106
491.0000	20.5655
491.5000	20.1856
492.0000	19.7546
492.5000	19.28
493.0000	18.7269
493.5000	18.4048
494.0000	17.8031
494.5000	17.145
495.0000	16.3936
495.5000	15.8249
496.0000	15.432
496.5000	14.8621
497.0000	14.1877
497.5000	13.6429
498.0000	13.1902
498.5000	12.5883
499.0000	12.0721
499.5000	11.5708
500.0000	11.0564
500.5000	10.6495
501.0000	10.2504
501.5000	9.91652
502.0000	9.51699
502.5000	9.18913
503.0000	8.84299
503.5000	8.49701
504.0000	8.11902
504.5000	7.88616
505.0000	7.73483
505.5000	7.47561
506.0000	7.247
506.5000	7.07637
507.0000	6.80311
507.5000	6.70976
508.0000	6.66646
508.5000	6.4886
509.0000	6.37785
509.5000	6.26003
510.0000	6.12861
510.5000	6.02739
511.0000	6.0176
511.5000	5.99572
512.0000	5.93311
512.5000	5.89785
513.0000	5.82668
513.5000	5.72109
514.0000	5.74162
514.5000	5.71187
515.0000	5.68668
515.5000	5.76178
516.0000	5.71579
516.5000	5.75005
517.0000	5.75857
517.5000	5.79242
518.0000	5.81906
518.5000	5.7865
519.0000	5.80492
519.5000	5.83923
520.0000	5.89325
520.5000	5.85611
521.0000	5.85444
521.5000	5.875
522.0000	5.89517
522.5000	5.86322
523.0000	5.87533
523.5000	5.90615
524.0000	6.02548
524.5000	6.03589
525.0000	6.07728
525.5000	5.9861
526.0000	5.97971
526.5000	6.05136
527.0000	5.98386
527.5000	6.06441
528.0000	6.05409
528.5000	5.94577
529.0000	5.85368
529.5000	5.9399
530.0000	5.85686
530.5000	5.76925
531.0000	5.74551
531.5000	5.71977
532.0000	5.72729
532.5000	5.70463
533.0000	5.64753
533.5000	5.57552
534.0000	5.55465
534.5000	5.44002
535.0000	5.42383
535.5000	5.44173
536.0000	5.31952
536.5000	5.27231
537.0000	5.22
537.5000	5.16472
538.0000	5.14023
538.5000	5.08276
539.0000	5.02901
539.5000	4.96434
540.0000	4.93803
540.5000	4.88351
541.0000	4.81695
541.5000	4.8034
542.0000	4.76517
542.5000	4.71862
543.0000	4.64671
543.5000	4.68385
544.0000	4.68077
544.5000	4.57515
545.0000	4.53599
545.5000	4.51008
546.0000	4.5217
546.5000	4.46074
547.0000	4.41474
547.5000	4.40643
548.0000	4.38514
548.5000	4.35636
549.0000	4.32771
549.5000	4.3441
550.0000	4.34163
550.5000	4.23858
551.0000	4.22622
551.5000	4.24584
552.0000	4.22774
552.5000	4.2746
553.0000	4.2414
553.5000	4.23593
554.0000	4.23187
554.5000	4.23935
555.0000	4.1768
555.5000	4.14714
556.0000	4.14477
556.5000	4.10548
557.0000	4.08254
557.5000	4.11333
558.0000	4.08854
558.5000	4.03986
559.0000	3.98634
559.5000	3.94463
560.0000	3.99183
560.5000	4.02121
561.0000	4.06104
561.5000	4.10583
562.0000	3.98057
562.5000	3.95841
563.0000	3.89958
563.5000	3.91125
564.0000	3.90541
564.5000	3.9469
565.0000	3.89538
565.5000	3.78742
566.0000	3.75189
566.5000	3.74541
567.0000	3.74905
567.5000	3.77194
568.0000	3.76392
568.5000	3.72517
569.0000	3.77626
569.5000	3.75105
570.0000	3.6832
570.5000	3.64452
571.0000	3.62184
571.5000	3.61221
572.0000	3.57412
572.5000	3.52143
573.0000	3.51755
573.5000	3.51746
574.0000	3.53285
574.5000	3.50303
575.0000	3.44367
575.5000	3.43204
576.0000	3.37701
576.5000	3.28925
577.0000	3.27318
577.5000	3.31352
578.0000	3.28217
578.5000	3.25268
579.0000	3.28704
579.5000	3.22433
580.0000	3.15571
580.5000	3.08246
581.0000	3.07643
581.5000	3.07083
582.0000	3.04476
582.5000	2.9777
583.0000	2.98508
583.5000	3.00048
584.0000	2.9049
584.5000	2.905
585.0000	2.89196
585.5000	2.79635
586.0000	2.79304
586.5000	2.7406
587.0000	2.77966
587.5000	2.75254
588.0000	2.72906
588.5000	2.6983
589.0000	2.63175
589.5000	2.58447
590.0000	2.58669
590.5000	2.61256
591.0000	2.55683
591.5000	2.56002
592.0000	2.5209
592.5000	2.39946
593.0000	2.44349
593.5000	2.46051
594.0000	2.38459
594.5000	2.37563
595.0000	2.35577
595.5000	2.33581
596.0000	2.28288
596.5000	2.25445
597.0000	2.24952
597.5000	2.25071
598.0000	2.2061
598.5000	2.22289
599.0000	2.20762
599.5000	2.15535
600.0000	2.13191
600.5000	2.133
601.0000	2.11427
601.5000	2.09005
602.0000	2.07467
602.5000	2.00489
603.0000	2.01884
603.5000	2.03166
604.0000	1.97336
604.5000	1.94273
605.0000	1.96945
605.5000	1.93719
606.0000	1.89824
606.5000	1.92129
607.0000	1.88678
607.5000	1.87411
608.0000	1.82491
608.5000	1.7993
609.0000	1.8003
609.5000	1.74521
610.0000	1.66925
610.5000	1.72648
611.0000	1.69491
611.5000	1.68701
612.0000	1.66303
612.5000	1.6228
613.0000	1.62924
613.5000	1.6298
614.0000	1.57166
614.5000	1.5655
615.0000	1.62252
615.5000	1.56299
616.0000	1.56434
616.5000	1.5611
617.0000	1.51069
617.5000	1.50316
618.0000	1.45036
618.5000	1.44587
619.0000	1.40378
619.5000	1.41884
620.0000	1.39969
620.5000	1.38361
621.0000	1.36069
621.5000	1.27708
622.0000	1.32829
622.5000	1.26683
623.0000	1.25503
623.5000	1.27246
624.0000	1.29633
624.5000	1.25367
625.0000	1.24113
625.5000	1.24702
626.0000	1.21819
626.5000	1.2231
627.0000	1.15424
627.5000	1.12092
628.0000	1.1282
628.5000	1.08863
629.0000	1.08987
629.5000	1.09469
630.0000	1.09093
630.5000	1.11137
631.0000	1.06004
631.5000	1.02181
632.0000	1.0485
632.5000	1.00504
633.0000	1.02457
633.5000	1.0057
634.0000	0.976862
634.5000	0.930373
635.0000	0.933408
635.5000	0.942907
636.0000	0.930988
636.5000	0.939288
637.0000	0.915027
637.5000	0.867664
638.0000	0.874995
638.5000	0.833491
639.0000	0.843957
639.5000	0.847875
640.0000	0.83565
640.5000	0.855438
641.0000	0.773408
641.5000	0.758423
642.0000	0.779954
642.5000	0.771774
643.0000	0.787476
643.5000	0.762387
644.0000	0.741821
644.5000	0.724091
645.0000	0.683246
645.5000	0.679356
646.0000	0.67521
646.5000	0.65985
647.0000	0.666131
647.5000	0.690811
648.0000	0.655684
648.5000	0.62725
649.0000	0.628903
649.5000	0.603056
650.0000	0.590098
650.5000	0.591998
651.0000	0.584858
651.5000	0.560347
652.0000	0.577618
652.5000	0.556137
653.0000	0.545946
653.5000	0.547249
654.0000	0.546569
654.5000	0.537458
655.0000	0.529197
655.5000	0.503588
656.0000	0.485463
656.5000	0.50813
657.0000	0.487848
657.5000	0.487227
658.0000	0.481084
658.5000	0.451032
659.0000	0.454481
659.5000	0.483693
660.0000	0.450086
660.5000	0.416327
661.0000	0.439091
661.5000	0.418119
662.0000	0.394282
662.5000	0.414144
663.0000	0.425104
663.5000	0.416217
664.0000	0.399265
664.5000	0.376438
665.0000	0.341771
665.5000	0.337801
666.0000	0.362061
666.5000	0.335483
667.0000	0.328078
667.5000	0.347678
668.0000	0.308952
668.5000	0.320623
669.0000	0.30252
669.5000	0.321113
670.0000	0.310061
670.5000	0.304011
671.0000	0.284934
671.5000	0.29224
672.0000	0.299324
672.5000	0.289693
673.0000	0.240739
673.5000	0.260114
674.0000	0.264419
674.5000	0.281102
675.0000	0.24783
675.5000	0.273965
676.0000	0.265105
676.5000	0.250231
677.0000	0.213527
677.5000	0.223167
678.0000	0.229995
678.5000	0.229681
679.0000	0.228016
679.5000	0.239508
680.0000	0.229146
680.5000	0.21995
681.0000	0.190417
681.5000	0.200623
682.0000	0.192587
682.5000	0.194225
683.0000	0.1947
683.5000	0.175161
684.0000	0.17739
684.5000	0.162549
685.0000	0.145291
685.5000	0.144565
686.0000	0.153402
686.5000	0.157692
687.0000	0.155893
687.5000	0.150309
688.0000	0.141536
688.5000	0.16144
689.0000	0.143527
689.5000	0.1484
690.0000	0.170013
690.5000	0.178304
691.0000	0.140594
691.5000	0.111617
692.0000	0.0964764
692.5000	0.109557
693.0000	0.113856
693.5000	0.0891702
694.0000	0.0769145
694.5000	0.0945296
695.0000	0.104183
695.5000	0.11858
696.0000	0.0917011
696.5000	0.0757388
697.0000	0.0922007
697.5000	0.0837349
698.0000	0.0836291
698.5000	0.0896082
699.0000	0.103318
699.5000	0.103409
700.0000	0.0843322

##### Extended Information
[コメント情報]
試料名
コメント
測定者
所属
会社	関西大学

[データ情報]
作成日時	2025/02/07 12:10

データタイプ	等間隔データ
横軸	Wavelength [nm]
縦軸	Int.
スタート	448 nm
エンド	700 nm
データ間隔	0.5 nm
データ数	505     

[測定情報]
機種名	FP-8300
シリアル番号	C037361450
  Ex側フォルダ	なし
  Em側フォルダ	なし

付属品名	SCE-846
付属品シリアルNo.	C037361450

測定日時	2025/02/07 12:10

測定モード	蛍光
励起側バンド幅	5 nm
蛍光側バンド幅	5 nm
レスポンス	0.1 sec
感度	Low
測定範囲	448 - 700 nm
データ取込間隔	0.5 nm
励起波長	448.0 nm
走査速度	500 nm/min
オートゲイン	Off
自動シャッタ制御	測定時のみ開く
光源	キセノンランプ
フィルタ	交換時にスキャンを停止する
ブランク補正	Off

