TITLE	
DATA TYPE	FLUORESCENCE SPECTRUM
ORIGIN	JASCO
OWNER	
DATE	25/02/25
TIME	12:47:43
SPECTROMETER/DATA SYSTEM	
LOCALE	1041
RESOLUTION	
DELTAX	0.5
XUNITS	NANOMETERS
YUNITS	INTENSITY
FIRSTX	  447.0000
LASTX	  700.0000
NPOINTS	     507
FIRSTY	   431.93643
MAXY	  1517.93152
MINY	     5.03752
XYDATA
447.0000	431.936
447.5000	480.052
448.0000	532.383
448.5000	588.643
449.0000	648.049
449.5000	712.03
450.0000	778.022
450.5000	845.642
451.0000	914.219
451.5000	981.662
452.0000	1049.54
452.5000	1115.26
453.0000	1177.84
453.5000	1235.39
454.0000	1288.95
454.5000	1337.81
455.0000	1380.62
455.5000	1417.01
456.0000	1447.56
456.5000	1472.61
457.0000	1493.23
457.5000	1506.86
458.0000	1514.68
458.5000	1517.93
459.0000	1517.71
459.5000	1513.82
460.0000	1505.53
460.5000	1492.89
461.0000	1478.52
461.5000	1460.58
462.0000	1440.34
462.5000	1417.13
463.0000	1392.02
463.5000	1365.58
464.0000	1338.84
464.5000	1309.42
465.0000	1279.6
465.5000	1249.12
466.0000	1218.28
466.5000	1188.75
467.0000	1158.82
467.5000	1127.64
468.0000	1098.29
468.5000	1068.51
469.0000	1041.49
469.5000	1015.61
470.0000	991.156
470.5000	966.501
471.0000	943.603
471.5000	922.867
472.0000	904.225
472.5000	887.765
473.0000	872.981
473.5000	860.286
474.0000	850.228
474.5000	842.385
475.0000	837.451
475.5000	835.373
476.0000	834.967
476.5000	836.664
477.0000	841.327
477.5000	848.264
478.0000	858.043
478.5000	869.322
479.0000	883.435
479.5000	898.315
480.0000	912.684
480.5000	929.371
481.0000	946.873
481.5000	965.755
482.0000	984.499
482.5000	1001.73
483.0000	1019.02
483.5000	1035.29
484.0000	1051.18
484.5000	1067.32
485.0000	1080.75
485.5000	1092.59
486.0000	1102.48
486.5000	1110.47
487.0000	1117.76
487.5000	1123.6
488.0000	1126.38
488.5000	1127.04
489.0000	1127.61
489.5000	1124.56
490.0000	1119.18
490.5000	1111.05
491.0000	1099.54
491.5000	1086.84
492.0000	1072.58
492.5000	1054.78
493.0000	1033.82
493.5000	1012.33
494.0000	989.234
494.5000	965.208
495.0000	941.157
495.5000	915.312
496.0000	889.659
496.5000	863.529
497.0000	837.35
497.5000	812.608
498.0000	787.442
498.5000	763.507
499.0000	739.242
499.5000	716.472
500.0000	694.488
500.5000	672.471
501.0000	651.082
501.5000	631.338
502.0000	612.715
502.5000	596.211
503.0000	579.964
503.5000	563.886
504.0000	549.857
504.5000	536.14
505.0000	524.33
505.5000	513.633
506.0000	503.461
506.5000	493.463
507.0000	485.03
507.5000	477.617
508.0000	471.586
508.5000	465.618
509.0000	459.938
509.5000	455.796
510.0000	451.957
510.5000	448.521
511.0000	446.748
511.5000	443.867
512.0000	441.716
512.5000	440.532
513.0000	439.495
513.5000	439.865
514.0000	440.152
514.5000	439.904
515.0000	440.562
515.5000	441.232
516.0000	442.184
516.5000	443.409
517.0000	444.458
517.5000	445.418
518.0000	446.729
518.5000	448.556
519.0000	449.094
519.5000	451.224
520.0000	453.311
520.5000	454.482
521.0000	455.808
521.5000	457.532
522.0000	459.124
522.5000	460.787
523.0000	462.353
523.5000	463.337
524.0000	464.879
524.5000	466.121
525.0000	467.19
525.5000	467.284
526.0000	468.95
526.5000	469.843
527.0000	469.63
527.5000	469.563
528.0000	469.219
528.5000	469.401
529.0000	468.776
529.5000	468.381
530.0000	467.882
530.5000	466.525
531.0000	465.65
531.5000	464.326
532.0000	461.821
532.5000	459.719
533.0000	457.6
533.5000	455.179
534.0000	452.774
534.5000	449.733
535.0000	446.62
535.5000	444.473
536.0000	440.544
536.5000	436.844
537.0000	433.101
537.5000	430.243
538.0000	427.222
538.5000	423.15
539.0000	420.098
539.5000	416.526
540.0000	412.106
540.5000	406.186
541.0000	402.397
541.5000	399.338
542.0000	395.582
542.5000	391.747
543.0000	387.851
543.5000	384.175
544.0000	380.659
544.5000	376.233
545.0000	372.602
545.5000	369.423
546.0000	365.64
546.5000	361.915
547.0000	358.977
547.5000	355.257
548.0000	351.917
548.5000	348.415
549.0000	345.29
549.5000	342.181
550.0000	339.098
550.5000	335.485
551.0000	332.148
551.5000	329.522
552.0000	327.284
552.5000	324.326
553.0000	320.991
553.5000	318.729
554.0000	315.664
554.5000	312.223
555.0000	309.576
555.5000	307.471
556.0000	304.815
556.5000	302.37
557.0000	300.151
557.5000	297.296
558.0000	294.013
558.5000	292.085
559.0000	289.593
559.5000	287.677
560.0000	284.68
560.5000	282.865
561.0000	279.786
561.5000	277.228
562.0000	275.024
562.5000	273.256
563.0000	270.615
563.5000	267.946
564.0000	265.285
564.5000	262.625
565.0000	260.177
565.5000	258.315
566.0000	255.834
566.5000	253.32
567.0000	250.712
567.5000	248.056
568.0000	245.667
568.5000	243.511
569.0000	241.109
569.5000	238.483
570.0000	235.937
570.5000	233.23
571.0000	230.9
571.5000	228.52
572.0000	226.277
572.5000	224.046
573.0000	221.219
573.5000	218.739
574.0000	216.342
574.5000	213.737
575.0000	211.11
575.5000	209.135
576.0000	206.041
576.5000	204.094
577.0000	201.212
577.5000	199.125
578.0000	196.932
578.5000	194.189
579.0000	192.045
579.5000	189.63
580.0000	187.469
580.5000	185.222
581.0000	182.364
581.5000	179.998
582.0000	177.66
582.5000	175.779
583.0000	173.931
583.5000	171.502
584.0000	169.401
584.5000	167.298
585.0000	164.951
585.5000	162.561
586.0000	160.707
586.5000	158.913
587.0000	156.943
587.5000	154.821
588.0000	152.694
588.5000	150.525
589.0000	148.385
589.5000	146.66
590.0000	144.539
590.5000	142.712
591.0000	141.376
591.5000	139.216
592.0000	137.55
592.5000	135.782
593.0000	133.918
593.5000	132.16
594.0000	130.878
594.5000	128.921
595.0000	126.931
595.5000	125.328
596.0000	123.709
596.5000	122.318
597.0000	120.637
597.5000	119.043
598.0000	117.491
598.5000	116.022
599.0000	114.25
599.5000	112.942
600.0000	111.721
600.5000	110.421
601.0000	108.752
601.5000	107.025
602.0000	106.12
602.5000	104.656
603.0000	103.475
603.5000	101.762
604.0000	100.345
604.5000	99.2832
605.0000	97.6467
605.5000	96.2542
606.0000	95.4201
606.5000	94.3147
607.0000	93.0004
607.5000	91.6992
608.0000	90.8029
608.5000	89.3604
609.0000	88.1276
609.5000	86.5477
610.0000	85.5512
610.5000	84.4368
611.0000	83.3721
611.5000	82.0822
612.0000	81.0392
612.5000	80.0245
613.0000	78.9753
613.5000	78.0536
614.0000	77.009
614.5000	75.5576
615.0000	74.4409
615.5000	73.718
616.0000	72.6304
616.5000	71.7241
617.0000	70.7591
617.5000	69.7162
618.0000	68.6706
618.5000	67.5763
619.0000	66.6508
619.5000	65.7022
620.0000	64.8384
620.5000	64.0074
621.0000	63.0752
621.5000	62.2077
622.0000	61.1996
622.5000	60.1467
623.0000	59.2721
623.5000	58.577
624.0000	57.8498
624.5000	57.15
625.0000	56.0522
625.5000	55.295
626.0000	54.4612
626.5000	53.58
627.0000	52.8406
627.5000	52.0717
628.0000	51.3677
628.5000	50.45
629.0000	49.7067
629.5000	49.0516
630.0000	48.4722
630.5000	47.6911
631.0000	47.097
631.5000	46.234
632.0000	45.384
632.5000	44.7224
633.0000	44.313
633.5000	43.5721
634.0000	42.9696
634.5000	42.4374
635.0000	41.6124
635.5000	40.8539
636.0000	40.264
636.5000	39.8051
637.0000	39.1318
637.5000	38.5653
638.0000	37.892
638.5000	37.4977
639.0000	36.9654
639.5000	36.2226
640.0000	35.5616
640.5000	35.0114
641.0000	34.3685
641.5000	34.0615
642.0000	33.4733
642.5000	32.9387
643.0000	32.4495
643.5000	32.0521
644.0000	31.6276
644.5000	31.1417
645.0000	30.6293
645.5000	30.1961
646.0000	29.5821
646.5000	29.2073
647.0000	28.6744
647.5000	28.1384
648.0000	27.6205
648.5000	27.3891
649.0000	26.977
649.5000	26.4715
650.0000	26.1196
650.5000	25.6032
651.0000	25.3861
651.5000	24.8822
652.0000	24.5043
652.5000	24.0753
653.0000	23.6366
653.5000	23.3303
654.0000	22.9793
654.5000	22.629
655.0000	22.2019
655.5000	21.6319
656.0000	21.4075
656.5000	21.1767
657.0000	20.7246
657.5000	20.3378
658.0000	20.1264
658.5000	19.9823
659.0000	19.5561
659.5000	19.1618
660.0000	18.9688
660.5000	18.7076
661.0000	18.3528
661.5000	17.9265
662.0000	17.6505
662.5000	17.3751
663.0000	17.2409
663.5000	16.9329
664.0000	16.4521
664.5000	16.284
665.0000	16.0624
665.5000	15.8965
666.0000	15.6995
666.5000	15.3875
667.0000	15.1194
667.5000	14.8783
668.0000	14.5107
668.5000	14.3745
669.0000	14.1303
669.5000	13.9396
670.0000	13.6283
670.5000	13.4262
671.0000	13.3404
671.5000	13.0121
672.0000	12.7679
672.5000	12.6606
673.0000	12.4429
673.5000	12.2371
674.0000	12.0391
674.5000	11.7558
675.0000	11.522
675.5000	11.3644
676.0000	11.3151
676.5000	11.0907
677.0000	10.8559
677.5000	10.6305
678.0000	10.5566
678.5000	10.421
679.0000	10.2766
679.5000	10.1548
680.0000	9.82664
680.5000	9.65853
681.0000	9.52314
681.5000	9.4109
682.0000	9.20606
682.5000	9.09531
683.0000	8.90711
683.5000	8.73976
684.0000	8.50757
684.5000	8.44866
685.0000	8.35333
685.5000	8.18011
686.0000	8.07403
686.5000	7.97603
687.0000	7.81558
687.5000	7.64176
688.0000	7.57771
688.5000	7.36613
689.0000	7.29084
689.5000	7.18189
690.0000	7.04299
690.5000	6.84255
691.0000	6.80685
691.5000	6.7011
692.0000	6.6506
692.5000	6.56267
693.0000	6.3855
693.5000	6.265
694.0000	6.24363
694.5000	6.13838
695.0000	5.98482
695.5000	5.86969
696.0000	5.81361
696.5000	5.73169
697.0000	5.64262
697.5000	5.51661
698.0000	5.28814
698.5000	5.35382
699.0000	5.32546
699.5000	5.18465
700.0000	5.03752

##### Extended Information
[コメント情報]
試料名
コメント
測定者
所属
会社	関西大学

[データ情報]
作成日時	2025/02/25 12:47

データタイプ	等間隔データ
横軸	Wavelength [nm]
縦軸	Int.
スタート	447 nm
エンド	700 nm
データ間隔	0.5 nm
データ数	507     

[測定情報]
機種名	FP-8300
シリアル番号	C037361450
  Ex側フォルダ	なし
  Em側フォルダ	なし

付属品名	SCE-846
付属品シリアルNo.	C037361450

測定日時	2025/02/25 12:47

測定モード	蛍光
励起側バンド幅	5 nm
蛍光側バンド幅	5 nm
レスポンス	0.1 sec
感度	Low
測定範囲	447 - 700 nm
データ取込間隔	0.5 nm
励起波長	447.0 nm
走査速度	500 nm/min
オートゲイン	Off
自動シャッタ制御	測定時のみ開く
光源	キセノンランプ
フィルタ	交換時にスキャンを停止する
ブランク補正	Off

