TITLE	
DATA TYPE	FLUORESCENCE SPECTRUM
ORIGIN	JASCO
OWNER	
DATE	25/03/03
TIME	16:54:35
SPECTROMETER/DATA SYSTEM	
LOCALE	1041
RESOLUTION	
DELTAX	0.5
XUNITS	NANOMETERS
YUNITS	INTENSITY
FIRSTX	  437.0000
LASTX	  700.0000
NPOINTS	     527
FIRSTY	     2.60332
MAXY	   532.19263
MINY	     0.35880
XYDATA
437.0000	2.60332
437.5000	2.46712
438.0000	2.26549
438.5000	2.06149
439.0000	1.81421
439.5000	1.62374
440.0000	1.4342
440.5000	1.28587
441.0000	1.22285
441.5000	1.16624
442.0000	1.1728
442.5000	1.22165
443.0000	1.30791
443.5000	1.37489
444.0000	1.474
444.5000	1.59442
445.0000	1.70725
445.5000	1.85733
446.0000	1.99918
446.5000	2.15895
447.0000	2.3437
447.5000	2.56828
448.0000	2.76998
448.5000	3.04496
449.0000	3.34525
449.5000	3.69832
450.0000	4.08448
450.5000	4.54702
451.0000	5.06691
451.5000	5.63298
452.0000	6.30764
452.5000	7.07319
453.0000	7.93911
453.5000	8.87602
454.0000	10.0047
454.5000	11.2895
455.0000	12.776
455.5000	14.4269
456.0000	16.273
456.5000	18.3728
457.0000	20.7348
457.5000	23.4795
458.0000	26.5531
458.5000	29.8789
459.0000	33.6131
459.5000	37.8498
460.0000	42.649
460.5000	48.1459
461.0000	54.0668
461.5000	60.6507
462.0000	67.8987
462.5000	75.9833
463.0000	84.9585
463.5000	94.7779
464.0000	105.398
464.5000	117.09
465.0000	129.708
465.5000	143.239
466.0000	158.181
466.5000	173.794
467.0000	190.297
467.5000	207.68
468.0000	225.92
468.5000	244.953
469.0000	264.638
469.5000	284.45
470.0000	304.916
470.5000	325.412
471.0000	345.93
471.5000	366.307
472.0000	385.744
472.5000	404.756
473.0000	422.834
473.5000	439.622
474.0000	455.55
474.5000	470.337
475.0000	483.461
475.5000	494.613
476.0000	504.532
476.5000	513.081
477.0000	519.903
477.5000	525.078
478.0000	528.852
478.5000	531.4
479.0000	532.193
479.5000	531.805
480.0000	530.242
480.5000	527.774
481.0000	523.84
481.5000	519.018
482.0000	513.571
482.5000	507.517
483.0000	501.252
483.5000	494.111
484.0000	486.603
484.5000	478.499
485.0000	470.227
485.5000	461.933
486.0000	453.277
486.5000	444.628
487.0000	435.946
487.5000	427.069
488.0000	418.181
488.5000	409.505
489.0000	400.819
489.5000	391.79
490.0000	382.815
490.5000	373.722
491.0000	364.97
491.5000	356.271
492.0000	347.449
492.5000	338.846
493.0000	330.287
493.5000	322.196
494.0000	314.394
494.5000	306.631
495.0000	299.253
495.5000	292.269
496.0000	285.997
496.5000	280.536
497.0000	275.377
497.5000	270.699
498.0000	266.511
498.5000	262.988
499.0000	259.957
499.5000	257.269
500.0000	255.408
500.5000	253.705
501.0000	252.548
501.5000	251.922
502.0000	251.524
502.5000	251.443
503.0000	251.885
503.5000	252.433
504.0000	253.184
504.5000	254.236
505.0000	255.299
505.5000	256.489
506.0000	257.781
506.5000	258.971
507.0000	260.264
507.5000	261.462
508.0000	262.555
508.5000	263.558
509.0000	264.449
509.5000	264.972
510.0000	265.457
510.5000	265.768
511.0000	265.84
511.5000	265.494
512.0000	265.031
512.5000	264.395
513.0000	263.291
513.5000	262.008
514.0000	260.419
514.5000	258.71
515.0000	256.713
515.5000	254.384
516.0000	251.894
516.5000	249.365
517.0000	246.593
517.5000	243.634
518.0000	240.604
518.5000	237.335
519.0000	233.986
519.5000	230.553
520.0000	227.21
520.5000	223.78
521.0000	220.184
521.5000	216.526
522.0000	213.019
522.5000	209.409
523.0000	206.026
523.5000	202.663
524.0000	199.21
524.5000	195.565
525.0000	192.254
525.5000	189.052
526.0000	185.752
526.5000	182.54
527.0000	179.431
527.5000	176.463
528.0000	173.329
528.5000	170.279
529.0000	167.347
529.5000	164.454
530.0000	161.698
530.5000	159.017
531.0000	156.29
531.5000	153.783
532.0000	151.403
532.5000	149.028
533.0000	146.788
533.5000	144.617
534.0000	142.455
534.5000	140.481
535.0000	138.426
535.5000	136.535
536.0000	134.818
536.5000	133.237
537.0000	131.606
537.5000	130.067
538.0000	128.598
538.5000	127.338
539.0000	125.924
539.5000	124.76
540.0000	123.681
540.5000	122.266
541.0000	121.253
541.5000	120.209
542.0000	119.277
542.5000	118.349
543.0000	117.367
543.5000	116.545
544.0000	115.644
544.5000	114.834
545.0000	114.023
545.5000	113.122
546.0000	112.25
546.5000	111.368
547.0000	110.52
547.5000	109.787
548.0000	108.839
548.5000	107.833
549.0000	106.812
549.5000	105.849
550.0000	104.875
550.5000	103.608
551.0000	102.514
551.5000	101.373
552.0000	100.371
552.5000	99.2168
553.0000	97.9502
553.5000	96.6192
554.0000	95.302
554.5000	94.1363
555.0000	92.7961
555.5000	91.3896
556.0000	89.931
556.5000	88.4435
557.0000	87.0137
557.5000	85.706
558.0000	84.2847
558.5000	82.7943
559.0000	81.1865
559.5000	79.7915
560.0000	78.297
560.5000	76.7806
561.0000	75.213
561.5000	73.6418
562.0000	72.163
562.5000	70.7614
563.0000	69.2838
563.5000	67.6691
564.0000	66.1869
564.5000	64.8654
565.0000	63.4324
565.5000	61.9185
566.0000	60.6263
566.5000	59.2491
567.0000	57.9024
567.5000	56.5478
568.0000	55.2325
568.5000	53.9592
569.0000	52.6828
569.5000	51.4326
570.0000	50.2365
570.5000	49.0717
571.0000	47.8756
571.5000	46.7055
572.0000	45.565
572.5000	44.5007
573.0000	43.4465
573.5000	42.4028
574.0000	41.4669
574.5000	40.4773
575.0000	39.5125
575.5000	38.4884
576.0000	37.6507
576.5000	36.8136
577.0000	35.9889
577.5000	35.1402
578.0000	34.3614
578.5000	33.5651
579.0000	32.8087
579.5000	32.1111
580.0000	31.4168
580.5000	30.736
581.0000	30.0018
581.5000	29.3913
582.0000	28.8571
582.5000	28.3146
583.0000	27.7364
583.5000	27.1309
584.0000	26.6092
584.5000	26.0597
585.0000	25.589
585.5000	25.154
586.0000	24.6541
586.5000	24.1913
587.0000	23.7749
587.5000	23.3447
588.0000	22.9251
588.5000	22.4874
589.0000	22.0904
589.5000	21.7208
590.0000	21.2712
590.5000	20.9047
591.0000	20.567
591.5000	20.2165
592.0000	19.9088
592.5000	19.5773
593.0000	19.2777
593.5000	18.9365
594.0000	18.591
594.5000	18.2435
595.0000	17.9333
595.5000	17.6643
596.0000	17.3852
596.5000	17.0845
597.0000	16.7216
597.5000	16.4392
598.0000	16.225
598.5000	15.9573
599.0000	15.6069
599.5000	15.3657
600.0000	15.1338
600.5000	14.8129
601.0000	14.5227
601.5000	14.3062
602.0000	14.0324
602.5000	13.7472
603.0000	13.4718
603.5000	13.2025
604.0000	12.9878
604.5000	12.7738
605.0000	12.5305
605.5000	12.2715
606.0000	12.006
606.5000	11.7695
607.0000	11.5583
607.5000	11.3197
608.0000	11.062
608.5000	10.8149
609.0000	10.58
609.5000	10.4073
610.0000	10.2024
610.5000	9.92575
611.0000	9.74977
611.5000	9.55574
612.0000	9.3704
612.5000	9.14298
613.0000	8.88945
613.5000	8.71998
614.0000	8.53837
614.5000	8.34895
615.0000	8.1414
615.5000	7.99396
616.0000	7.78138
616.5000	7.60789
617.0000	7.43457
617.5000	7.24663
618.0000	7.08938
618.5000	6.98249
619.0000	6.80707
619.5000	6.65165
620.0000	6.49061
620.5000	6.36012
621.0000	6.21348
621.5000	6.05544
622.0000	5.93999
622.5000	5.8002
623.0000	5.66886
623.5000	5.49756
624.0000	5.39073
624.5000	5.25256
625.0000	5.129
625.5000	5.03006
626.0000	4.91028
626.5000	4.79979
627.0000	4.6897
627.5000	4.5758
628.0000	4.47061
628.5000	4.3644
629.0000	4.26679
629.5000	4.16902
630.0000	4.06557
630.5000	3.97469
631.0000	3.87724
631.5000	3.79529
632.0000	3.72785
632.5000	3.65514
633.0000	3.57622
633.5000	3.49992
634.0000	3.43505
634.5000	3.35436
635.0000	3.26406
635.5000	3.22658
636.0000	3.1446
636.5000	3.08394
637.0000	3.02177
637.5000	2.93322
638.0000	2.89274
638.5000	2.81802
639.0000	2.76218
639.5000	2.72584
640.0000	2.64496
640.5000	2.58157
641.0000	2.55815
641.5000	2.51088
642.0000	2.44827
642.5000	2.41584
643.0000	2.35246
643.5000	2.31757
644.0000	2.26216
644.5000	2.24138
645.0000	2.19225
645.5000	2.14408
646.0000	2.0986
646.5000	2.07206
647.0000	2.04138
647.5000	1.99756
648.0000	1.92719
648.5000	1.89935
649.0000	1.88213
649.5000	1.82456
650.0000	1.7912
650.5000	1.77236
651.0000	1.74295
651.5000	1.74226
652.0000	1.67137
652.5000	1.62724
653.0000	1.60963
653.5000	1.58568
654.0000	1.54387
654.5000	1.50439
655.0000	1.49665
655.5000	1.45463
656.0000	1.44839
656.5000	1.4194
657.0000	1.41004
657.5000	1.37554
658.0000	1.33432
658.5000	1.32738
659.0000	1.29954
659.5000	1.26625
660.0000	1.24703
660.5000	1.24476
661.0000	1.20744
661.5000	1.19589
662.0000	1.16714
662.5000	1.13251
663.0000	1.11785
663.5000	1.11701
664.0000	1.08133
664.5000	1.04344
665.0000	1.04414
665.5000	1.01685
666.0000	1.01247
666.5000	0.996735
667.0000	0.954985
667.5000	0.925894
668.0000	0.914319
668.5000	0.924721
669.0000	0.888576
669.5000	0.877651
670.0000	0.862988
670.5000	0.860222
671.0000	0.851578
671.5000	0.844226
672.0000	0.814507
672.5000	0.804009
673.0000	0.772536
673.5000	0.79343
674.0000	0.779316
674.5000	0.756222
675.0000	0.720343
675.5000	0.716315
676.0000	0.713033
676.5000	0.689878
677.0000	0.696759
677.5000	0.692524
678.0000	0.679984
678.5000	0.663428
679.0000	0.640413
679.5000	0.652377
680.0000	0.638918
680.5000	0.62626
681.0000	0.606152
681.5000	0.601448
682.0000	0.608952
682.5000	0.607108
683.0000	0.566362
683.5000	0.555171
684.0000	0.55715
684.5000	0.534361
685.0000	0.521302
685.5000	0.541991
686.0000	0.539287
686.5000	0.52127
687.0000	0.510505
687.5000	0.472239
688.0000	0.496846
688.5000	0.489333
689.0000	0.496341
689.5000	0.505311
690.0000	0.485168
690.5000	0.462637
691.0000	0.465212
691.5000	0.455404
692.0000	0.447028
692.5000	0.432391
693.0000	0.420679
693.5000	0.421834
694.0000	0.387296
694.5000	0.395336
695.0000	0.406256
695.5000	0.421005
696.0000	0.386222
696.5000	0.415987
697.0000	0.408512
697.5000	0.393069
698.0000	0.38712
698.5000	0.378327
699.0000	0.358803
699.5000	0.376608
700.0000	0.366887

##### Extended Information
[コメント情報]
試料名
コメント
測定者
所属
会社	関西大学

[データ情報]
作成日時	2025/03/03 16:54

データタイプ	等間隔データ
横軸	Wavelength [nm]
縦軸	Int.
スタート	437 nm
エンド	700 nm
データ間隔	0.5 nm
データ数	527     

[測定情報]
機種名	FP-8300
シリアル番号	C037361450
  Ex側フォルダ	なし
  Em側フォルダ	なし

付属品名	SCE-846
付属品シリアルNo.	C037361450

測定日時	2025/03/03 16:54

測定モード	蛍光
励起側バンド幅	5 nm
蛍光側バンド幅	5 nm
レスポンス	0.1 sec
感度	Very low
測定範囲	437 - 700 nm
データ取込間隔	0.5 nm
励起波長	437.0 nm
走査速度	500 nm/min
オートゲイン	Off
自動シャッタ制御	測定時のみ開く
光源	キセノンランプ
フィルタ	交換時にスキャンを停止する
ブランク補正	Off

