TITLE	
DATA TYPE	FLUORESCENCE SPECTRUM
ORIGIN	JASCO
OWNER	
DATE	25/05/14
TIME	20:04:40
SPECTROMETER/DATA SYSTEM	
LOCALE	1041
RESOLUTION	
DELTAX	0.5
XUNITS	NANOMETERS
YUNITS	INTENSITY
FIRSTX	  449.0000
LASTX	  700.0000
NPOINTS	     503
FIRSTY	   232.82411
MAXY	   328.72763
MINY	     0.40742
XYDATA
449.0000	232.824
449.5000	239.344
450.0000	244.768
450.5000	249.879
451.0000	255.1
451.5000	260.35
452.0000	266.959
452.5000	274.42
453.0000	282.993
453.5000	290.926
454.0000	299.004
454.5000	306.639
455.0000	312.651
455.5000	318.506
456.0000	323.257
456.5000	326.022
457.0000	327.714
457.5000	328.728
458.0000	328.493
458.5000	326.718
459.0000	324.865
459.5000	322.192
460.0000	317.687
460.5000	313.126
461.0000	308.655
461.5000	302.769
462.0000	295.99
462.5000	289.761
463.0000	282.747
463.5000	276.294
464.0000	269.008
464.5000	261.725
465.0000	254.791
465.5000	247.277
466.0000	239.7
466.5000	232.475
467.0000	225.48
467.5000	218.448
468.0000	211.538
468.5000	205.062
469.0000	199.277
469.5000	193.056
470.0000	187.779
470.5000	182.868
471.0000	178.34
471.5000	173.967
472.0000	170.307
472.5000	167.222
473.0000	163.95
473.5000	161.823
474.0000	160.172
474.5000	158.759
475.0000	158.464
475.5000	158.525
476.0000	158.769
476.5000	159.696
477.0000	161.01
477.5000	163.581
478.0000	166.348
478.5000	168.662
479.0000	172.633
479.5000	176.125
480.0000	179.879
480.5000	183.03
481.0000	186.926
481.5000	190.781
482.0000	194.208
482.5000	198.276
483.0000	201.638
483.5000	204.7
484.0000	207.651
484.5000	209.848
485.0000	211.682
485.5000	213.806
486.0000	215.497
486.5000	216.244
487.0000	216.927
487.5000	216.895
488.0000	216.25
488.5000	215.373
489.0000	214.637
489.5000	213.184
490.0000	210.861
490.5000	207.802
491.0000	204.419
491.5000	200.663
492.0000	196.968
492.5000	192.306
493.0000	187.488
493.5000	182.254
494.0000	177.005
494.5000	171.81
495.0000	166.376
495.5000	160.493
496.0000	154.917
496.5000	149.35
497.0000	143.692
497.5000	138.737
498.0000	133.18
498.5000	128.161
499.0000	123.103
499.5000	118.241
500.0000	113.458
500.5000	109.281
501.0000	105.008
501.5000	101.089
502.0000	97.58
502.5000	93.9858
503.0000	90.9538
503.5000	87.8578
504.0000	84.9358
504.5000	82.3408
505.0000	79.545
505.5000	77.2966
506.0000	75.6331
506.5000	73.8776
507.0000	71.9143
507.5000	70.1898
508.0000	68.8967
508.5000	67.5976
509.0000	66.6779
509.5000	65.97
510.0000	65.2866
510.5000	64.4772
511.0000	63.904
511.5000	63.2489
512.0000	62.9941
512.5000	62.6144
513.0000	62.3048
513.5000	62.1174
514.0000	61.9848
514.5000	61.9877
515.0000	61.9152
515.5000	61.8815
516.0000	62.0339
516.5000	61.9993
517.0000	62.1007
517.5000	62.2012
518.0000	62.2313
518.5000	62.3018
519.0000	62.5165
519.5000	62.4757
520.0000	62.7124
520.5000	62.7951
521.0000	62.9379
521.5000	63.1051
522.0000	63.2992
522.5000	63.2505
523.0000	63.1072
523.5000	63.2687
524.0000	63.4292
524.5000	63.2761
525.0000	63.1508
525.5000	62.8307
526.0000	62.6568
526.5000	62.6371
527.0000	62.6516
527.5000	62.3011
528.0000	62.0472
528.5000	61.8689
529.0000	61.5444
529.5000	61.144
530.0000	60.6651
530.5000	60.3472
531.0000	60.0325
531.5000	59.4117
532.0000	58.8152
532.5000	58.3069
533.0000	57.9394
533.5000	57.2423
534.0000	56.7369
534.5000	56.1759
535.0000	55.5755
535.5000	55.0754
536.0000	54.5198
536.5000	53.4717
537.0000	52.9098
537.5000	52.283
538.0000	51.6637
538.5000	50.9741
539.0000	50.0955
539.5000	49.5995
540.0000	49.079
540.5000	48.2606
541.0000	47.7329
541.5000	47.0993
542.0000	46.4923
542.5000	45.8305
543.0000	45.1371
543.5000	44.4
544.0000	44.0643
544.5000	43.5781
545.0000	43.076
545.5000	42.5406
546.0000	41.784
546.5000	41.3865
547.0000	41.0168
547.5000	40.7847
548.0000	40.2035
548.5000	39.5546
549.0000	39.2962
549.5000	38.8367
550.0000	38.4112
550.5000	38.0703
551.0000	37.7534
551.5000	37.2931
552.0000	37.0977
552.5000	36.5742
553.0000	36.1466
553.5000	35.8792
554.0000	35.6224
554.5000	35.343
555.0000	35.1168
555.5000	34.8975
556.0000	34.6215
556.5000	34.4394
557.0000	34.2827
557.5000	33.8873
558.0000	33.5712
558.5000	33.3793
559.0000	33.0007
559.5000	32.8627
560.0000	32.4865
560.5000	32.3988
561.0000	32.1448
561.5000	32.021
562.0000	31.5375
562.5000	31.1483
563.0000	30.9938
563.5000	30.7105
564.0000	30.5726
564.5000	30.4667
565.0000	30.0602
565.5000	29.6476
566.0000	29.4462
566.5000	29.2393
567.0000	28.9866
567.5000	28.7995
568.0000	28.4569
568.5000	28.0095
569.0000	27.8912
569.5000	27.7045
570.0000	27.268
570.5000	27.0266
571.0000	26.7869
571.5000	26.5545
572.0000	26.354
572.5000	26.0154
573.0000	25.6767
573.5000	25.4406
574.0000	25.0854
574.5000	24.7216
575.0000	24.4439
575.5000	24.2428
576.0000	23.9323
576.5000	23.5282
577.0000	23.2076
577.5000	22.9001
578.0000	22.6633
578.5000	22.4755
579.0000	22.186
579.5000	21.7888
580.0000	21.5134
580.5000	21.1189
581.0000	21.039
581.5000	20.8695
582.0000	20.5283
582.5000	20.1335
583.0000	19.8705
583.5000	19.4893
584.0000	19.1631
584.5000	18.9794
585.0000	18.7983
585.5000	18.598
586.0000	18.3042
586.5000	18.0536
587.0000	17.8333
587.5000	17.5761
588.0000	17.3987
588.5000	17.2053
589.0000	16.8758
589.5000	16.626
590.0000	16.3761
590.5000	16.2029
591.0000	15.976
591.5000	15.7748
592.0000	15.6192
592.5000	15.2752
593.0000	15.054
593.5000	14.8151
594.0000	14.6018
594.5000	14.4111
595.0000	14.1498
595.5000	14.2201
596.0000	14.004
596.5000	13.7451
597.0000	13.605
597.5000	13.52
598.0000	13.4364
598.5000	13.1341
599.0000	12.9483
599.5000	12.7453
600.0000	12.5265
600.5000	12.3139
601.0000	12.2845
601.5000	12.133
602.0000	11.9612
602.5000	11.8265
603.0000	11.5909
603.5000	11.5515
604.0000	11.3859
604.5000	11.1602
605.0000	10.9847
605.5000	10.9554
606.0000	10.7053
606.5000	10.6028
607.0000	10.5061
607.5000	10.3183
608.0000	10.1621
608.5000	10.0222
609.0000	9.85515
609.5000	9.86321
610.0000	9.72938
610.5000	9.63424
611.0000	9.46582
611.5000	9.25095
612.0000	9.09025
612.5000	9.04549
613.0000	8.88797
613.5000	8.75225
614.0000	8.74475
614.5000	8.48335
615.0000	8.36673
615.5000	8.30715
616.0000	8.29512
616.5000	8.14106
617.0000	7.97677
617.5000	7.91329
618.0000	7.77319
618.5000	7.68582
619.0000	7.58702
619.5000	7.43825
620.0000	7.48445
620.5000	7.3666
621.0000	7.11602
621.5000	7.01535
622.0000	6.86035
622.5000	6.80436
623.0000	6.6718
623.5000	6.56237
624.0000	6.55084
624.5000	6.51059
625.0000	6.32137
625.5000	6.28183
626.0000	6.12858
626.5000	6.0601
627.0000	6.06384
627.5000	5.84806
628.0000	5.77048
628.5000	5.78145
629.0000	5.66533
629.5000	5.58397
630.0000	5.51151
630.5000	5.3973
631.0000	5.28901
631.5000	5.18792
632.0000	5.1715
632.5000	5.09093
633.0000	5.04981
633.5000	4.91774
634.0000	4.8647
634.5000	4.80354
635.0000	4.74876
635.5000	4.6537
636.0000	4.53589
636.5000	4.47049
637.0000	4.34473
637.5000	4.30148
638.0000	4.24482
638.5000	4.19559
639.0000	4.09592
639.5000	3.95652
640.0000	3.88506
640.5000	3.94594
641.0000	3.93672
641.5000	3.82089
642.0000	3.65997
642.5000	3.64099
643.0000	3.55563
643.5000	3.45466
644.0000	3.50618
644.5000	3.45406
645.0000	3.35661
645.5000	3.21222
646.0000	3.2277
646.5000	3.2512
647.0000	3.24407
647.5000	3.10638
648.0000	3.04493
648.5000	3.00621
649.0000	2.95994
649.5000	2.90097
650.0000	2.90285
650.5000	2.83851
651.0000	2.82326
651.5000	2.7846
652.0000	2.68012
652.5000	2.57668
653.0000	2.55278
653.5000	2.5429
654.0000	2.46555
654.5000	2.47944
655.0000	2.3953
655.5000	2.37234
656.0000	2.36741
656.5000	2.29695
657.0000	2.23277
657.5000	2.18515
658.0000	2.13549
658.5000	2.14996
659.0000	2.12395
659.5000	2.08747
660.0000	2.02884
660.5000	1.99484
661.0000	1.94544
661.5000	1.94931
662.0000	1.92925
662.5000	1.88719
663.0000	1.86614
663.5000	1.82185
664.0000	1.75433
664.5000	1.72913
665.0000	1.70836
665.5000	1.70238
666.0000	1.64553
666.5000	1.5967
667.0000	1.54353
667.5000	1.58891
668.0000	1.52938
668.5000	1.47755
669.0000	1.45688
669.5000	1.4325
670.0000	1.37865
670.5000	1.35277
671.0000	1.37863
671.5000	1.30782
672.0000	1.31081
672.5000	1.28406
673.0000	1.26155
673.5000	1.24179
674.0000	1.24882
674.5000	1.24328
675.0000	1.19772
675.5000	1.18453
676.0000	1.18345
676.5000	1.15112
677.0000	1.09551
677.5000	1.05456
678.0000	1.01964
678.5000	1.06531
679.0000	1.04533
679.5000	0.981749
680.0000	0.973635
680.5000	0.928279
681.0000	0.940364
681.5000	0.891715
682.0000	0.879341
682.5000	0.862567
683.0000	0.83267
683.5000	0.801919
684.0000	0.819284
684.5000	0.826328
685.0000	0.794827
685.5000	0.799884
686.0000	0.744001
686.5000	0.702778
687.0000	0.694862
687.5000	0.713359
688.0000	0.711883
688.5000	0.692125
689.0000	0.654627
689.5000	0.649848
690.0000	0.646361
690.5000	0.612843
691.0000	0.575605
691.5000	0.578348
692.0000	0.580036
692.5000	0.556718
693.0000	0.571634
693.5000	0.559009
694.0000	0.49897
694.5000	0.494446
695.0000	0.516043
695.5000	0.493958
696.0000	0.459789
696.5000	0.465278
697.0000	0.45448
697.5000	0.472495
698.0000	0.471999
698.5000	0.486189
699.0000	0.407418
699.5000	0.410504
700.0000	0.433082

##### Extended Information
[コメント情報]
試料名
コメント
測定者
所属
会社	関西大学

[データ情報]
作成日時	2025/05/14 20:04

データタイプ	等間隔データ
横軸	Wavelength [nm]
縦軸	Int.
スタート	449 nm
エンド	700 nm
データ間隔	0.5 nm
データ数	503     

[測定情報]
機種名	FP-8300
シリアル番号	C037361450
  Ex側フォルダ	なし
  Em側フォルダ	なし

付属品名	SCE-846
付属品シリアルNo.	C037361450

測定日時	2025/05/14 20:04

測定モード	蛍光
励起側バンド幅	5 nm
蛍光側バンド幅	5 nm
レスポンス	0.1 sec
感度	Low
測定範囲	449 - 700 nm
データ取込間隔	0.5 nm
励起波長	449.0 nm
走査速度	500 nm/min
オートゲイン	Off
自動シャッタ制御	測定時のみ開く
光源	キセノンランプ
フィルタ	交換時にスキャンを停止する
ブランク補正	Off

